t(s),Total solute volume 1,Total retention volume 1,Total 1 volume 1,Total 2 volume 1,Total 3 volume 1,Total 4 volume 1,Total 5 volume 1,Total 6 volume 1
1.0,2548049688294564.5,2551265381540587.5,3215693246039.0884,0.0,0.0,0.0,0.0,0.0
2.1,3915314208648401.0,3921529716157291.0,4941210160845.826,231549284.21606204,1100518023.2109172,21281260451.790154,430533378178.0398,821150642118.6276
3.3100000000000005,5015371621564594.0,5025126225366527.0,6329506023211.329,622721974.817348,2959700526.667394,57239492456.82138,1157869236415.2827,2206406627352.9224
4.641000000000001,5998348204974104.0,6012371872656002.0,7570043394840.566,1173588693.928694,5577883237.623082,107887880524.97296,2182282891657.214,4156702042954.5757
6.105100000000002,6920214629809883.0,6939384159228316.0,8733458450483.131,1897843163.4615479,9020150311.937847,174493421861.02066,3529406852201.745,6721252700408.679
7.7156100000000025,7809073922382561.0,7834417147637443.0,9855217805813.078,2816318401.5361986,13385517816.903357,258981896836.65283,5238193032407.207,9974630683608.385
9.487171000000004,8681583893614280.0,8714296769931098.0,10956343971888.518,3955532591.639535,18800022496.074852,363805165054.16956,7358231121088.157,14011740503689.729
11.435888100000005,9548770440843300.0,9590240557732684.0,12050751865317.887,5347500907.780013,25415827410.202976,491925003509.5962,9949422410446.096,18947254281758.758
13.579476910000007,1.0418548703033948e+16,1.0470383784870506e+16,13148430559543.047,7030041474.224628,33412676111.973442,646842645396.0358,13082576648295.62,24916789265744.61
15.937424601000009,1.1296972074546146e+16,1.136103332844156e+16,14257019566573.62,9047349816.493513,43000622901.85807,832653369688.4434,16840513515018.89,32079019471385.605
18.53116706110001,1.2188910879600698e+16,1.2267351477077658e+16,15382665338322.531,11450763647.346458,54423667687.378204,1054119058096.4133,21319523715040.18,40618414934189.625
21.384283767210015,1.309844416884172e+16,1.3193753298892694e+16,16530515721833.08,14299688428.641895,67964154936.46321,1316756123023.179,26631134623139.93,50748459739632.2
24.522712143931017,1.4029090704597394e+16,1.414414367004964e+16,17705011467148.523,17662669375.066593,83947868575.60497,1626937639084.7263,32904153997778.363,62715251810310.984
27.97498335832412,1.4983937719969548e+16,1.5122052510988548e+16,18910048723567.94,21618594900.53018,102749751524.88293,1992008488739.6306,40286965221603.125,76801400238644.67
31.772481694156536,1.5965694305037906e+16,1.6130694977193724e+16,20149046413795.29,26258005216.68126,124800124904.74501,2420411342407.165,48950028642586.91,93330127626943.4
35.949729863572195,1.697668118716265e+16,1.7172968183914116e+16,21424933336255.305,31684460427.784252,150591189922.50302,2921819566496.7544,59088510326893.89,112669457871443.02
40.544702849929415,1.801876292275555e+16,1.825139019850125e+16,22740062589696.18,38015898079.83271,180683479556.29202,3507270964978.2227,70924917120819.81,135236325692563.44
45.59917313492236,1.9093228769869844e+16,1.9367987186641396e+16,24096061232161.688,45385885139.13163,215711808428.78946,4189294013347.1597,84711573138989.23,161500390693470.53
51.1590904484146,2.020063248018931e+16,2.0524138487101228e+16,25493628095632.258,53944649079.03129,256390172806.91565,4982016419779.087,100732737176689.81,191987290397915.97
57.27499949325607,2.1340606740466696e+16,2.172039484262401e+16,26932299607947.85,63859761980.47446,303515001468.17053,5901244889495.5205,119306141993241.69,227281040903160.47
64.00249944258168,2.251167288659544e+16,2.295628992913061e+16,28410209648845.46,75316353335.64763,357966166655.92535,6964505153440.867,140783740665328.44,268025304547494.38
71.40274938683986,2.3711069145208724e+16,2.4230168043457548e+16,29923872788209.29,88516742099.63188,420705234955.243,8191032699632.825,165551473403474.62,314923297380448.2
79.54302432552385,2.4934620203887596e+16,2.5539050499858044e+16,31468019681911.598,103679404767.29483,492770562601.4102,9601707060490.205,194027917345081.25,368736201915632.94
88.49732675807624,2.617666751521392e+16,2.6878560075574108e+16,33035509115001.984,121037231168.07478,575269005682.1403,11218925715623.41,226661746852831.62,430280072439884.0
98.34705943388387,2.743007431861756e+16,2.8242917637344188e+16,34617334340230.26,140835061147.95663,669364212824.7689,13066417473616.113,263928008593312.34,500421359045537.1
109.18176537727226,2.868631317755606e+16,2.9625019126060044e+16,36202733552507.64,163326542976.81848,776261694514.339,15168999568626.14,306323303113688.94,580071324031709.9
121.09994191499949,2.9935637993612556e+16,3.1016595493508504e+16,37779406974819.75,188770409698.9918,897191126380.6768,17552287798272.64,354360065295512.0,670179778291252.2
134.20993610649944,3.1167337576978016e+16,3.240845358489593e+16,39333836869757.84,217426334927.45578,1033386654037.9366,20242375060432.688,408560254005244.2,771728728993483.5
148.6309297171494,3.2370063889329468e+16,3.37907923134855e+16,40851701788881.46,249550605283.92853,1186066326811.3196,23265500699451.566,469448897963649.75,885726706771940.6
164.49402268886433,3.3532224496074828e+16,3.515358523441589e+16,42318371855304.4,285391928890.1672,1356412178323.8093,26647740833404.207,537548094277984.44,1013204727267171.4
181.94342495775078,3.464242487121171e+16,3.648701705834572e+16,43719466960959.18,325187777541.1605,1545552843643.085,30414757394750.27,613372200727948.2,1155215021429084.8
201.13776745352587,3.568994151941772e+16,3.7781957216410856e+16,45041453855498.125,369161716924.99774,1754550872278.4358,34591649418382.17,697425072728478.8,1312833808401535.2
222.25154419887846,3.666520148215591e+16,3.903044827308062e+16,46272251291654.625,417522191786.925,1984396955847.1716,39202952096660.04,790200231227578.2,1487169437161144.8
245.47669861876633,3.756023839613501e+16,4.022618140467565e+16,47401805578982.4,470463177601.7686,2236013026241.551,44272825103492.91,892184766392220.5,1679377135262051.5
271.024368480643,3.836909114008006e+16,4.136492650346958e+16,48422593682776.97,528166968642.88885,2510265506815.369,49825459894503.69,1003867549425018.8,1890681327911779.0
299.1268053287073,3.908810976412914e+16,4.244488221564692e+16,49330009311834.55,590809138033.7953,2807988885614.1875,55885715384934.016,1125751926867975.5,2122406001929336.2
330.03948586157804,3.97161362295223e+16,4.346691279006447e+16,50122591014447.734,658565390706.8937,3130018284284.2354,62479963483853.734,1258372525250946.0,2376012897117931.0
364.0434344477359,4.025453532116262e+16,4.4434644949697304e+16,50802061189840.75,731619669766.7083,3477227983410.633,69637093310837.14,1402315154585897.8,2653146471794961.5
401.44777789250946,4.070706385310308e+16,4.5354409233472936e+16,51373161022397.71,810172526575.7406,3850571200843.83,77389590389979.78,1558238161032897.8,2955683724197157.0
442.5925556817604,4.107958278881405e+16,4.6235025502996e+16,51843287171577.52,894448495090.8176,4251115137408.383,85774580920053.6,1726893063285350.2,3285786219172439.5
487.8518112499365,4.137963490497077e+16,4.708744964027096e+16,52221958775411.734,984701091850.771,4680064738223.103,94834717726500.67,1909142038981357.2,3645951253986775.5
537.6369923749302,4.1615927158429224e+16,4.792431515861954e+16,52520164187790.99,1081214146293.8132,5138769013603.797,104618788569697.06,2105969903343815.0,4039059160929097.0
592.4006916124232,4.179776883450249e+16,4.8759416492885656e+16,52749651911030.95,1184298466386.1155,5628705190670.253,115181950753922.95,2318488676412674.5,4468414375648420.5
652.6407607736655,4.19345213164868e+16,4.960718749035443e+16,52922236194739.34,1294283327476.3345,6151438261890.422,126585535702179.77,2547933615508055.0,4937779064873328.0
718.9048368510321,4.203511168391632e+16,5.048222752764211e+16,53049183187766.35,1411502855477.8284,6708556268388.791,138896416140483.23,2795650555537202.5,5451399629736432.0
791.7953205361354,4.2107650834226024e+16,5.1398918739377864e+16,53140729000670.21,1536277945413.4368,7301584364478.307,152185976506746.88,3063075349064050.5,6014027988270506.0
871.9748525897489,4.215917968360153e+16,5.237116275396537e+16,53205759406524.164,1668894798213.1514,7931882809840.42,166528763425361.6,3351706917535769.5,6630940852388030.0
960.1723378487239,4.219554771344096e+16,5.341224710937048e+16,53251656564375.59,1809581390269.0825,8600535136573.565,182000909444897.7,3663075752284529.0,7307960961108779.0
1057.1895716335964,4.222141049109387e+16,5.4534833762653736e+16,53284295890485.8,1958483188197.1675,9308232728607.43,198678416725731.47,3998709577789622.0,8051484265237315.0
1163.9085287969563,4.224031994664778e+16,5.5751048059880904e+16,53308159989450.914,2115639228598.5884,10055161135403.473,216635361085080.44,4360097370414572.5,8868516421380040.0
1281.299381676652,4.225487485207525e+16,5.70726383076086e+16,53326528561837.164,2280959394496.3496,10840892072596.875,235942038954471.88,4748652175614551.0,9766720860935398.0
1410.4293198443174,4.22668991448251e+16,5.85111742410192e+16,53341703452024.22,2454203452123.369,11664283788576.898,256663041063044.47,5165672397832346.0,1.0754479466605996e+16
1552.4722518287492,4.2277621030808504e+16,6.0078256299201976e+16,53355234679651.4,2634962262944.588,12523391768879.967,278855206991485.62,5612300648504573.0,1.184096582418593e+16
1708.7194770116243,4.2287833936593144e+16,6.1785714790465096e+16,53368123564407.1,2822641610101.205,13415391865820.422,302565400784201.75,6089478961412369.0,1.3036230334635074e+16
1880.5914247127869,4.229802903400274e+16,6.36457865527281e+16,53380989974639.76,3016449273173.665,14336518866197.742,327828051749786.6,6597899265101660.0,1.4351296243759828e+16
2069.6505671840655,4.230849644585548e+16,6.567126470231876e+16,53394200050960.43,3215386297947.395,15282024996519.842,354662424676454.3,7137948404943202.0,1.5798265815498278e+16
2277.615623902472,4.231939740668275e+16,6.787562333985536e+16,53407957274467.59,3418243755795.8486,16246164518808.246,383069615901753.7,7709647652523492.0,1.739043629919829e+16
2506.3771862927197,4.23308124523591e+16,7.027312324706736e+16,53422363282992.03,3623606578362.778,17222211953427.26,413029311566360.9,8312587439298299.0,1.9142425862028856e+16
2758.0149049219917,4.234277156631359e+16,7.28789068824994e+16,53437455916200.08,3829866202675.1963,18202522175696.08,444496388472967.6,8945858935668397.0,2.1070310147749852e+16
3034.816395414191,4.235527178428699e+16,7.570909192113922e+16,53453231433137.47,4035243700385.7266,19178640341100.27,477397484192117.8,9607985024572106.0,2.3191770512613404e+16
3339.2980349556105,4.23682867069886e+16,7.878087279970392e+16,53469656517387.43,4237824741035.5986,20141468054988.52,511627710335629.1,1.0296854168776776e+16,2.5526255264289584e+16
3674.227838451172,4.2381771178339144e+16,8.211263971771672e+16,53486674181102.49,4435607120383.131,21081489261461.957,547047730276408.06,1.1009661623368308e+16,2.8095155415169824e+16
4042.6506222962894,4.239566333920615e+16,8.572412458984987e+16,53504206356859.516,4626560661343.442,21989054937044.37,583481468149559.6,1.1742863361313652e+16,3.0921996599225156e+16
4447.915684525919,4.240988547340853e+16,8.963658362508544e+16,53522154965332.805,4808698089653.226,22854719945620.285,620714756155453.5,1.2492148888332564e+16,3.40326489341883e+16
4893.707252978511,4.2424344524069224e+16,9.387302643694203e+16,53540402566943.234,4980154067012.332,23669618665236.715,658495256327470.6,1.3252439709335434e+16,3.7455556771910744e+16
5384.077978276362,4.2438932821002344e+16,9.845850167214125e+16,53558813279832.55,5139268056844.66,24425858832007.94,696534003249959.2,1.401792041585122e+16,4.122199049186891e+16
5923.485776103998,4.245352935773794e+16,1.0342044883131037e+17,53577234391494.914,5284665290984.782,25116906359898.363,734508896294034.8,1.4782109002661448e+16,4.536632276857459e+16
6516.834353714399,4.2468001832155896e+16,1.0878912497950606e+17,53595498934096.52,5415329044093.6875,25737928849913.875,772070413682100.9,1.553797188920793e+16,4.992633208763196e+16
7169.5177890858395,4.248220957491204e+16,1.1459811316842675e+17,53613429380204.805,5530656979618.108,26286063396585.35,808849716881969.4,1.6278087032023744e+16,5.494353669485254e+16
7887.469567994424,4.249600740742665e+16,1.2088491645061923e+17,53630842511646.4,5630494760157.549,26760576338535.34,844469156328063.8,1.6994855345094942e+16,6.04635626281592e+16
8677.216524793868,4.250925038121962e+16,1.276916373192853e+17,53647555400637.57,5715141584083.485,27162889581384.188,878554977944753.0,1.7680756389313094e+16,6.653654998424165e+16
9545.938177273256,4.252179924773602e+16,1.3506573740107907e+17,53663392312811.42,5785324829531.881,27496460094579.617,910751772874671.1,1.832863912054388e+16,7.321760208268763e+16
10501.531995000581,4.25335263957128e+16,1.4306086664835403e+17,53678192200289.57,5842144351524.569,27766515174973.586,940737930078373.2,1.893203279842677e+16,8.05672826724097e+16
11552.68519450064,4.25443218817871e+16,1.5173774577670445e+17,53691816312424.35,5886990749081.175,27979663993243.984,968241075728406.9,1.94854576117927e+16,8.865216673634157e+16
12708.953713950705,4.255409908557969e+16,1.6116508118388448e+17,53704155332625.41,5921445466892.843,28143422800966.47,993052258978898.8,1.9984710064785228e+16,9.754545075094029e+16
13980.849085345777,4.256279946278999e+16,1.7142048914952083e+17,53715135376855.59,5947173213214.728,28265703614988.258,1015037522465189.1,2.0427095730541496e+16,1.0732762842151886e+17
15379.933993880357,4.257039586925886e+16,1.8259140683890173e+17,53724722188663.98,5965818247364.607,28354321289980.477,1034145528357280.8,2.081158263395044e+16,1.1808723794560925e+17
16918.927393268394,4.2576894001535656e+16,1.9477597236749382e+17,53732922957207.72,5978915278386.518,28416570032145.113,1050410134411020.2,2.1138853024879584e+16,1.299216867983999e+17
18611.820132595236,4.258233165149657e+16,2.0808386525045856e+17,53739785376566.914,5987823095936.332,28458907952800.31,1063947239910065.6,2.1411239863096876e+16,1.429381599795295e+17
20474.00214585476,4.258677569564021e+16,2.2263711150508397e+17,53745393846176.67,5993685141861.0205,28486769665105.25,1074945820730157.1,2.163254639389195e+16,1.572546177461687e+17
22522.40236044024,4.259031700821346e+16,2.385708731134256e+17,53749863051094.51,5997416874022.597,28504506219608.914,1083653773941830.0,2.1807761299920868e+16,1.730008892452044e+17
24775.642596484264,4.259306375996664e+16,2.560342572601286e+17,53753329504898.44,5999715922005.475,28515433366671.992,1090359884479173.5,2.1942695838742536e+16,1.90319869298147e+17
27254.206856132692,4.259513379051247e+16,2.7519119400651712e+17,53755941923458.2,6001088463047.097,28521956912492.11,1095373777876061.2,2.204358047009421e+16,2.093688269807355e+17
29980.627541745966,4.259664687328776e+16,2.962214392064609e+17,53757851463166.27,6001884337574.058,28525739614877.945,1099006011263892.9,2.2116664274696496e+16,2.3032083657179706e+17
32979.69029592056,4.259771769424004e+16,3.193217606779951e+17,53759202859905.35,6002334084467.54,28527877204877.91,1101550400306770.1,2.2167859369076824e+16,2.5336634380022208e+17
36278.65932551262,4.25984502312873e+16,3.4470735951453664e+17,53760127335817.65,6002582825544.952,28529059434519.17,1103270274718802.1,2.2202464371368384e+16,2.7871488286756672e+17
39907.525258063884,4.259893397549706e+16,3.726135662765011e+17,53760737830360.29,6002718104646.6455,28529702392502.664,1104389674423541.6,2.222498727933551e+16,3.065969621889172e+17
43899.277783870275,4.259924212861111e+16,4.0329783649723174e+17,53761126725546.22,6002790781306.389,28530047809711.766,1105089686480932.2,2.223907178533458e+16,3.372661389314882e+17
48290.20556225731,4.259943161128375e+16,4.370420551276676e+17,53761365856341.516,6002829507209.076,28530231864655.168,1105509355909269.1,2.224751562058311e+16,3.7100130411266285e+17
53120.22611848305,4.2599544484530264e+16,4.741551486850278e+17,53761508304560.33,6002850064377.301,28530329567272.07,1105750039900379.0,2.2252358180799676e+16,4.0810920129186106e+17
58433.24873033136,4.259961026427342e+16,5.149759992213788e+17,53761591319867.64,6002859333592.872,28530373620362.074,1105881810054822.1,2.2255009356344148e+16,4.4892720296643245e+17
64277.57360336451,4.259964860312096e+16,5.598766563673639e+17,53761639704234.125,6002864736031.762,28530399296119.05,1105950550023302.4,2.225639235092232e+16,4.938263699595609e+17
70706.33096370097,4.2599671908276984e+16,6.092658511697102e+17,53761669115791.375,6002868020029.298,28530414903722.195,1105984675757758.4,2.2257078903593924e+16,5.4321482073004243e+17
77777.96406007107,4.259968760350705e+16,6.635928264719062e+17,53761688923475.13,6002870231689.981,28530425414912.29,1106000804547588.8,2.2257403356886784e+16,5.975414397223948e+17
85556.76046607818,4.259969990289684e+16,7.233515099150355e+17,53761704445542.81,6002871964832.883,28530433651887.65,1106008097089539.5,2.2257550023491904e+16,6.572999568814947e+17
94113.436512686,4.259971108499508e+16,7.890850659485482e+17,53761718557566.91,6002873540534.986,28530441140606.1,1106011306080301.1,2.225761452615939e+16,7.23033433998074e+17
103525.78016395462,4.25997223466365e+16,8.613908702845078e+17,53761732769976.04,6002875127445.742,28530448682595.14,1106011598079641.1,2.225764348443165e+16,7.95339197798778e+17
113879.3581803501,4.259973434267792e+16,9.409259551391223e+17,53761747909212.164,6002876817842.941,28530456716416.266,1106011909120984.0,2.2257649669037564e+16,8.748742641368422e+17
125268.29399838512,4.259974725949474e+16,1.0284130082629821e+18,53761764210484.51,6002878637989.283,28530465366886.184,1106012244036801.5,2.2257656328352144e+16,9.623612973228831e+17
137796.12339822366,4.259976142183149e+16,1.124646908055035e+18,53761782083627.375,6002880633645.5,28530474851488.39,1106012611247290.6,2.2257663629799136e+16,1.0585951752545897e+18
151576.73573804603,4.259977699249104e+16,1.2305019498081528e+18,53761801734100.734,6002882827752.591,28530485279252.723,1106013014973707.5,2.225767165731225e+16,1.1644501929735337e+18
166735.40931185064,4.2599794118581096e+16,1.346939775858376e+18,53761823347557.36,6002885241039.917,28530496748698.227,1106013459030360.9,2.2257680486733244e+16,1.2808879925886945e+18
183409.95024303574,4.259981295660865e+16,1.4750180935726351e+18,53761847121512.234,6002887895561.348,28530509364638.688,1106013947475264.0,2.2257690198750136e+16,1.4089662812254162e+18
201751.94526733932,4.259983367784053e+16,1.6159002611347628e+18,53761873272107.414,6002890815450.618,28530523241772.383,1106014484749145.5,2.2257700881659984e+16,1.549848416803184e+18
221928.13979407327,4.259985647050663e+16,1.7708658274727235e+18,53761902036892.54,6002894027231.709,28530538506157.977,1106015075732548.0,2.225771263250541e+16,1.7048139479594097e+18
244121.9537734806,4.259988154161124e+16,1.941322120882938e+18,53761933677111.164,6002897560074.224,28530555296427.566,1106015725792818.1,2.2257725558008304e+16,1.8752702026709934e+18
268535.1491508287,4.259990911882528e+16,2.1288169901236936e+18,53761968480088.3,6002901446059.935,28530573765053.73,1106016440833159.0,2.225773977554503e+16,2.062765029344797e+18
295389.6640659116,4.259993945254974e+16,2.3350528118854917e+18,53762006761834.86,6002905720473.578,28530594079731.527,1106017227346131.4,2.2257755414210756e+16,2.2690008042848218e+18
324929.6304725028,4.259997281818135e+16,2.5619018896545193e+18,53762048869906.85,6002910422122.096,28530616424895.74,1106018092472407.0,2.2257772615987228e+16,2.495849830552157e+18
357423.5935197531,4.260000951860324e+16,2.811423381146528e+18,53762095186548.6,6002915593685.652,28530641003389.09,1106019044065336.5,2.225779153702684e+16,2.7453712653950474e+18
393166.95287172846,4.26000498869222e+16,3.085881904795048e+18,53762146132147.37,6002921282103.287,28530668038295.18,1106020090761942.1,2.2257812349063868e+16,3.019829726732855e+18
432484.6481589014,4.260009428947766e+16,3.387767990328721e+18,53762202169030.625,6002927538996.961,28530697774953.664,1106021242060905.2,2.2257835240965896e+16,3.3217157437287296e+18
