t(s),Total solute volume 1,Total retention volume 1,Total 1 volume 1,Total 2 volume 1,Total 3 volume 1,Total 4 volume 1,Total 5 volume 1,Total 6 volume 1
1.0,1776835851595048.2,1777151752911878.0,315901316829.0454,0.0,0.0,0.0,0.0,0.0
2.1,2730099424604565.5,2731803978661259.5,485380796677.9141,1712152402.3806248,4858641039.023465,43380183182.52947,527549876536.74866,641672406859.4537
3.3100000000000005,3496896674283149.0,3500797321213934.0,621708673583.682,4603317899.242268,13063014827.537613,116654482996.42557,1418643133161.0054,1725974308312.8318
4.641000000000001,4181919769551118.5,4188843065932623.0,743498030922.2197,8672773659.314217,24611071932.898705,219825537403.96094,2673311758207.0376,3253377209375.7188
6.105100000000002,4824187554502260.0,4835039260516633.0,857685977767.4501,14020197032.177752,39785672856.54688,355445374365.3761,4322590941273.0312,5262177851088.136
7.7156100000000025,5443275565215822.0,5459074816882081.0,967752822979.5085,20797540239.671684,59018021215.84436,527398845347.0418,6413724261679.206,7810560174805.302
9.487171000000004,6050761107101292.0,6072668941081746.0,1075756880480.7184,29198044860.90068,82856489961.20163,740628171796.2355,9006813809950.693,10972580583410.922
11.435888100000005,6654258266267359.0,6683605759492840.0,1183051848625.2107,39454455537.30219,111961552616.88332,1001091180840.5249,12174312121492.33,14837622066375.006
13.579476910000007,7259138793862625.0,7297456807293363.0,1290592763962.2354,51840546089.25063,147110114342.69775,1315804342181.246,16001545273426.096,19511120390718.816
15.937424601000009,7869340579066981.0,7918391956933213.0,1399079738585.363,66673993065.897934,189203666742.55194,1692921061634.746,20587664635889.34,25115834770323.715
18.53116706110001,8487749473779769.0,8549563933011759.0,1509025844242.9126,84319591527.54883,239277413946.6917,2141820013762.573,26046720633475.844,31793295735018.43
21.384283767210015,9116355344689050.0,9193266806660050.0,1620784856634.0815,105192066215.22491,298508250641.49664,2673184851659.424,32508631610628.81,39705160335217.31
24.522712143931017,9756282331211264.0,9850968012423876.0,1734556634934.3862,129757822195.71428,368219730766.8449,3299058937712.335,40119848938493.086,49034239148488.77
27.97498335832412,1.0407754420475998e+16,1.0523274620240674e+16,1850381001425.067,158535068956.3128,449882420672.349,4032861009521.134,49043547106009.64,59984993158112.5
31.772481694156536,1.107004005522086e+16,1.1209877293690622e+16,1968127893411.4785,192091888765.5071,545108418843.37756,4889351149005.246,59459209532429.664,72783349587304.14
35.949729863572195,1.1741408490184728e+16,1.1909504490512932e+16,2087489603891.1648,231041999236.68716,655639332603.263,5884540945085.482,71561535828355.28,87675752619021.92
40.544702849929415,1.24191207988156e+16,1.2619909784884936e+16,2207979182654.905,276038155780.96466,783327557680.1729,7035546684374.821,85558656353037.88,104927438135827.39
45.59917313492236,1.3099468917436506e+16,1.3337905808631394e+16,2328937377902.9956,327763328009.4295,930111241081.7638,8360389164385.555,101669697800355.27,124819992283130.69
51.1590904484146,1.3777867665057544e+16,1.4059449981043954e+16,2449548996330.5645,386919956349.5363,1097983796389.5863,9877748080702.295,120121796526364.11,147648318630225.72
57.27499949325607,1.4448998207454574e+16,1.477978084468989e+16,2568868409419.7974,454217759779.7021,1288959307787.2183,11606683119261.184,141146707150905.44,173717201488158.38
64.00249944258168,1.5106997264606598e+16,1.5493599781622358e+16,2685853192382.102,530360740472.22754,1505035655416.5784,13566338353710.344,164977208293346.56,203337720780426.47
71.40274938683986,1.5745684076528776e+16,1.61952907464877e+16,2799404476113.709,616034229081.836,1748157756382.2346,15775651654371.16,191843569376150.06,236823852466822.06
79.54302432552385,1.6358815851842406e+16,1.6879169525005408e+16,2908412363057.6216,711893029079.0378,2020183924886.69,18253096429959.75,221970410674997.03,274489676741030.06
88.49732675807624,1.694036118465242e+16,1.7539752944207722e+16,3011804537625.3096,818551915969.1152,2322858915285.1387,21016488319178.113,255574353160760.34,316647702706473.1
98.34705943388387,1.7484779139556602e+16,1.817203678405776e+16,3108595884346.05,936579866884.3761,2657797551404.0317,24082892917138.066,292862896818293.7,363608881463087.0
109.18176537727226,1.7987289333905936e+16,1.8771768777007976e+16,3197936505428.1343,1066499361687.0494,3026482748032.637,27468670335911.996,334034962633470.3,415684891517507.0
121.09994191499949,1.8444115912945916e+16,1.933570050221432e+16,3279155096768.732,1208791835504.5159,3430280989287.739,31189686485148.89,379283461530052.56,473193213331621.56
134.20993610649944,1.8852686714988836e+16,1.986180004634276e+16,3351794357258.668,1363909827961.4817,3870476811390.882,35261708165888.77,428800097994460.75,536465344196945.9
148.6309297171494,1.921176914652759e+16,2.03494069957244e+16,3415635145831.8813,1532295568138.9216,4348325549565.318,39700979326580.45,482782376075318.8,605858237531351.6
164.49402268886433,1.952152710221838e+16,2.079931345638246e+16,3470706601188.1006,1714404722929.9927,4865120738813.6455,44524950659734.62,541442469422765.9,681768702018623.6
181.94342495775078,1.9783488974271484e+16,2.1213759760196696e+16,3517280454220.991,1910732955646.7551,5422269491255.005,49753107382122.8,605017284689340.1,764650110952627.1
201.13776745352587,2.000042507457082e+16,2.1596341111945064e+16,3555849235057.5767,2121841984203.1445,6021366455421.59,55407815268795.05,673778746427481.6,855030418003319.6
222.25154419887846,2.0176142654488708e+16,2.1951830827972476e+16,3587089829903.1533,2348381211703.8257,6664255213336.254,61515088228854.39,748043127573969.0,953530231426019.2
245.47669861876633,2.0315216620937456e+16,2.2285935620302004e+16,3611815605407.0713,2591100919453.564,7353065735997.32,68105176817467.125,828178202269022.6,1060879638017203.6
271.024368480643,2.042268220807939e+16,2.2605006870577004e+16,3630921769176.789,2850853572198.337,8090218106218.034,75212888975859.9,914607142404737.4,1177932637669442.5
299.1268053287073,2.050372058786676e+16,2.2915737327028028e+16,3645329474896.3057,3128580963078.409,8878386059420.205,82877581594501.28,1007808411265547.0,1305678449803821.5
330.03948586157804,2.056336855959023e+16,2.3224873902294908e+16,3655934208419.594,3425286542275.0044,9720418479928.34,91142799938398.14,1108311375052107.9,1445249528483539.0
364.0434344477359,2.060627882626451e+16,2.353897381947116e+16,3663563167630.3193,3741994020149.686,10619221947077.75,100055583930660.16,1216687863240453.2,1597926766900636.0
401.44777789250946,2.063654876994076e+16,2.3864223816423264e+16,3668944820634.069,4079694847411.195,11577611715143.68,109665496502444.75,1333540349044342.5,1765142949552498.2
442.5925556817604,2.065762480472354e+16,2.4206331962923708e+16,3672691900809.7705,4439288132611.845,12598141228785.443,120023451347547.69,1459487690353735.2,1948485895236684.2
487.8518112499365,2.0672278516427956e+16,2.457049092764381e+16,3675297164711.867,4821516789145.088,13682920933456.5,131180420620574.48,1595149410470271.5,2149702845237697.2
537.6369923749302,2.0682641987498972e+16,2.4961402343142132e+16,3677139672441.186,5226903243871.571,14833435834460.896,143186087646059.03,1741129309879025.2,2370707479367319.5
592.4006916124232,2.069028440021211e+16,2.538334583793083e+16,3678498406826.2944,5655687118697.831,16050368644968.15,156087480898593.1,1897998850074464.0,2613590552575165.0
652.6407607736655,2.0696310678089348e+16,2.5840274035752116e+16,3679569810749.7354,6107766266773.53,17333432440953.188,169927592058440.6,2066280343735204.8,2880634653350692.5
718.9048368510321,2.0701465050085284e+16,2.633591610154233e+16,3680486199686.908,6582641763541.836,18681214523061.51,184743952104552.8,2246429634931785.0,3174333121934433.0
791.7953205361354,2.0706226798202384e+16,2.687387623200599e+16,3681332784547.164,7079367172054.433,20091032388092.89,200567122280444.22,2438817744924587.5,3497412834253909.0
871.9748525897489,2.0710890631857612e+16,2.7457718494001028e+16,3682161961325.5186,7596502705421.14,21558803573748.43,217419054640546.06,2643710933377250.5,3852860405885072.0
960.1723378487239,2.071562887294168e+16,2.809103433995335e+16,3683004366901.576,8132075711051.514,23078933415725.137,235311289108707.34,2861248773605152.0,4243951390804156.5
1057.1895716335964,2.0720536156573396e+16,2.8777493103122788e+16,3683876826327.1685,8683549996523.98,24644227864804.996,254242977194477.4,3091420122912050.0,4674282191755222.0
1163.9085287969563,2.0725659408659844e+16,2.952087842732538e+16,3684787682496.8325,9247807653133.97,26245841737323.445,274198752429234.5,3334037232995478.5,5147804596167876.0
1281.299381676652,2.073101662517585e+16,3.0325114980691604e+16,3685740134890.9995,9821147970948.271,27873275435891.758,295146500519152.7,3588708646011479.5,5668863045443398.0
1410.4293198443174,2.073660784305242e+16,3.1194290267389296e+16,3686734190075.5576,10399308582678.008,29514434722830.027,317035115818624.7,3854811930623146.5,6242234900399524.0
1552.4722518287492,2.0742421085299644e+16,3.2132676285183956e+16,3687767718677.419,10977513972682.885,31155768130235.12,339792363861833.25,4131467715268176.0,6873174070932672.0
1708.7194770116243,2.0748435321708652e+16,3.3144755517105268e+16,3688836981763.744,11550555825276.992,32782494716806.59,363323001693935.44,4417516864930554.0,7567458441248216.0
1880.5914247127869,2.075462181697815e+16,3.4235255500624492e+16,3689936870523.523,12112908271924.467,34378930873045.035,387507337563270.2,4711503010028402.0,8331441560039146.0
2069.6505671840655,2.076094472690411e+16,3.5409196062956236e+16,3691061012263.4536,12658878872285.598,35928918569159.35,412200437008236.44,5011662945270729.0,9172109095319438.0
2277.615623902472,2.076736145691093e+16,3.667195321862477e+16,3692201834150.6255,13182793133590.482,37416348844908.35,437232199846783.56,5315927628052736.0,1.0097140590001598e+16
2506.3771862927197,2.0773823082946956e+16,3.8029343603964616e+16,3693350638043.005,13679206644679.605,38825763763487.95,462408536917530.6,5621936557677971.0,1.111497710537589e+16
2758.0149049219917,2.0780275009734636e+16,3.948773305266725e+16,3694497717518.8457,14143134731831.723,40143008219138.88,487513860375065.75,5927068132359616.0,1.223489540952946e+16
3034.816395414191,2.078665796796284e+16,4.105417237435294e+16,3695632535166.257,14570285368777.479,41355891135055.695,512315060263971.2,6228488079827531.0,1.3467089457259612e+16
3339.2980349556105,2.0792909403172308e+16,4.273656248035105e+16,3696743969511.1597,14957277506838.168,42454805455204.77,536567067070607.9,6523217167634247.0,1.482276001554237e+16
3674.227838451172,2.079896526793936e+16,4.45438496414379e+16,3697820633647.357,15301824776065.354,43433250029481.39,560019991304917.75,6808218076457435.0,1.631421341029702e+16
4042.6506222962894,2.0804762186668292e+16,4.648624985486961e+16,3698851260112.0547,15602864409210.377,44288196187297.6,582427687308559.5,7080499569157256.0,1.7954970499878842e+16
4447.915684525919,2.081023991585161e+16,4.8575499118751496e+16,3699825138292.2603,15860613878345.475,45020249255316.29,603557415872666.0,7337233988917409.0,1.9759887109837856e+16
4893.707252978511,2.0815343973417468e+16,5.0825124038823736e+16,3700732581892.9404,16076543385481.617,45633571289719.26,623200093020175.8,7575881843870602.0,2.174528728125835e+16
5384.077978276362,2.0820028263496388e+16,5.325072491545732e+16,3701565395590.8257,16253260754276.273,46135555131771.7,641180433025888.8,7794315057921421.0,2.392911077973187e+16
5923.485776103998,2.0824257484887076e+16,5.587026166622951e+16,3702317303232.345,16394315518612.383,46536268976960.47,657366152473371.1,7990928753798027.0,2.633107637327221e+16
6516.834353714399,2.0828009091400292e+16,5.870433208031852e+16,3702984296360.5293,16503939561249.643,46847720622669.805,671675333201915.1,8164730601941542.0,2.897286240929458e+16
7169.5177890858395,2.0831274578633564e+16,6.177643240848285e+16,3703564862988.994,16586750587051.025,47083015936938.65,684081078089615.5,8315397214930838.0,3.1878306205441816e+16
7887.469567994424,2.083405991078174e+16,6.511319248074806e+16,3704060063484.002,16647450094946.701,47255501402987.64,694612757740836.2,8443289070299346.0,3.5073623730364784e+16
8677.216524793868,2.0836384974361256e+16,6.874458149109288e+16,3704473433442.8613,16690547941535.666,47377981861502.15,703353442588020.0,8549419055555419.0,3.85876510153517e+16
9545.938177273256,2.0838282048120164e+16,7.27040860361625e+16,3704810711661.207,16720140666457.732,47462090646979.49,710433521806794.9,8635374680347372.0,4.245210874386311e+16
10501.531995000581,2.083979339737795e+16,7.702886830495016e+16,3705079412433.946,16739761321107.205,47517862584676.65,716020976832745.1,8703199671017928.0,4.6701891556403384e+16
11552.68519450064,2.084096821760157e+16,8.175991851879323e+16,3705288282157.661,16752306585564.938,47553526385851.53,720309227554298.6,8755246132117042.0,5.137538382026677e+16
12708.953713950705,2.0841859243962816e+16,8.694222067583448e+16,3705446696548.3486,16760035088358.639,47575499270122.99,723503816197591.9,8794012667239454.0,5.651480396737956e+16
13980.849085345777,2.084251939055256e+16,9.262495330778386e+16,3705564063131.791,16764621571666.031,47588540289692.305,725809358796945.2,8821985842262624.0,6.216657999024737e+16
15379.933993880357,2.0842998771975692e+16,9.88617466380202e+16,3705649291716.887,16767246552743.121,47596004615664.56,727418129339981.5,8841501571485020.0,6.838175926475936e+16
16918.927393268394,2.0843342390500396e+16,1.0571101419174518e+17,3705710383196.9893,16768700832223.297,47600140152628.74,728501348463581.9,8854639430182481.0,7.521645647123061e+16
18611.820132595236,2.084358865682744e+16,1.1323637121927093e+17,3705754166559.4653,16769487743643.969,47602377877672.23,729203782730900.5,8863157226897809.0,8.273234393302691e+16
20474.00214585476,2.0843768776252104e+16,1.2150714551362886e+17,3705786189752.2085,16769911753221.756,47603583510298.94,729641721381813.5,8868466614853410.0,9.099718911968846e+16
22522.40236044024,2.084390690391237e+16,1.305989798625184e+17,3705810747285.066,16770148057599.902,47604255266145.61,729903901877058.4,8871644504668840.0,1.0008544433798912e+17
24775.642596484264,2.0844020879115264e+16,1.4059452083676371e+17,3705831010784.681,16770292757824.91,47604666458565.04,730054604637728.1,8873470786742949.0,1.100788937760405e+17
27254.206856132692,2.0844123304959388e+16,1.515841866956363e+17,3705849220939.1587,16770396306621.502,47604960583575.61,730137987745036.1,8874481066109350.0,1.210673631307113e+17
29980.627541745966,2.084422274685801e+16,1.6366700794672947e+17,3705866900581.9365,16770484241267.926,47605210272677.4,730182782935378.8,8875023738604653.0,1.3314949711691701e+17
32979.69029592056,2.0844324870240532e+16,1.7695153691167155e+17,3705885056962.176,16770569194749.926,47605451452200.914,730206673127841.5,8875313161699980.0,1.4643361030089926e+17
36278.65932551262,2.084443340417959e+16,1.915568264950643e+17,3705904353066.728,16770657435719.01,47605701945328.234,730219939466691.1,8875473929367486.0,1.6103861695831638e+17
39907.525258063884,2.084455088399963e+16,2.076134821843718e+17,3705925239647.5547,16770752238374.098,47605971057987.41,730228224281207.8,8875574398701505.0,1.770950460288534e+17
43899.277783870275,2.0844679177636604e+16,2.252647943615868e+17,3705948048802.491,16770855539849.69,47606264061923.67,730234451445943.6,8875649982147155.0,1.947461476827065e+17
48290.20556225731,2.084481983140178e+16,2.446679599528286e+17,3705973055448.175,16770968704627.482,47606585294588.41,730240056780972.1,8875718064988780.0,2.1414909847260224e+17
53120.22611848305,2.084497428223279e+16,2.6599540332817533e+17,3706000515055.839,16771092970010.32,47606938037737.14,730245716666079.2,8875786835581981.0,2.354763124621712e+17
58433.24873033136,2.0845143980986964e+16,2.894362064894129e+17,3706030685571.4375,16771229503303.818,47607325604916.01,730251747374370.4,8875860123040856.0,2.589168660522161e+17
64277.57360336451,2.0845330462038964e+16,3.151976582632257e+17,3706063839789.436,16771379539008.799,47607751500413.08,730258307798195.8,8875939852174041.0,2.846780444463357e+17
70706.33096370097,2.08455353834747e+16,3.435069317173679e+17,3706100272498.7183,16771544411159.236,47608219511054.32,730265486516185.2,8876027198427706.0,3.129870177847541e+17
77777.96406007107,2.0845760552613664e+16,3.7461289849915757e+17,3706140305020.206,16771725573857.229,47608733764493.59,730273374542843.6,8876123064395123.0,3.440926549079629e+17
85556.76046607818,2.0846007945046816e+16,4.0878808825296634e+17,3706184288591.5864,16771924616589.543,47609298772692.35,730282041086208.9,8876228391950111.0,3.7826748246720557e+17
94113.436512686,2.0846279722952996e+16,4.463308003469913e+17,3706232607623.7417,16772143278964.592,47609919473751.12,730291561890775.8,8876344101642151.0,4.158097966651445e+17
103525.78016395462,2.084657825130015e+16,4.875673748254343e+17,3706285682581.206,16772383463747.635,47610601268911.63,730302019805069.1,8876471200358437.0,4.570459340835559e+17
113879.3581803501,2.0846906116187956e+16,5.328546278273506e+17,3706343973243.1694,16772647251618.002,47611350064447.84,730313505424194.1,8876610789133070.0,5.023327070753156e+17
125268.29399838512,2.084726614389314e+16,5.825824554382125e+17,3706407982089.627,16772936916492.607,47612172315163.26,730326117757042.2,8876764071255802.0,5.520600075880928e+17
137796.12339822366,2.0847661421112476e+16,6.371766078099676e+17,3706478257900.2744,16773254941812.67,47613075070622.375,730339964935412.9,8876932360890388.0,6.066535812547594e+17
151576.73573804603,2.0848095316454344e+16,6.971016326531505e+17,3706555399575.535,16773604037834.96,47614066024235.34,730355164966922.9,8877117092224649.0,6.66577970854044e+17
166735.40931185064,2.0848571503160404e+16,7.628639836730015e+17,3706640060176.1284,16773987159912.852,47615153565149.56,730371846530955.1,8877319829144236.0,7.323396247133786e+17
183409.95024303574,2.084909398299846e+16,8.350152850181055e+17,3706732951171.0366,16774407527719.514,47616346832818.42,730390149815681.9,8877542275405044.0,8.044901611225719e+17
201751.94526733932,2.084966711122956e+16,9.141557371394912e+17,3706834846876.328,16774868645335.777,47617655774022.516,730410227392698.5,8877786285263005.0,8.8362977415634e+17
221928.13979407327,2.0850295622501044e+16,1.000937642395389e+18,3706946589058.651,16775374322082.385,47619091202004.72,730432245124084.0,8878053874497853.0,9.70410759241153e+17
244121.9537734806,2.0850984657455508e+16,1.0960690200252274e+18,3707069091665.9966,16775928693928.766,47620664857242.23,730456383094567.1,8878347231742181.0,1.0655411280902936e+18
268535.1491508287,2.085173978977012e+16,1.2003172694651574e+18,3707203345635.0127,16776536245247.895,47622389469199.95,730482836558757.6,8878668729993274.0,1.1697882719797763e+18
295389.6640659116,2.0852567053249296e+16,1.314512828062126e+18,3707350423707.759,16777201830613.932,47624278818206.24,730511816890229.1,8879020938147778.0,1.2839826194227658e+18
324929.6304725028,2.085347296848103e+16,1.4395527537079557e+18,3707511485170.8955,16777930696249.027,47626347796332.22,730543552515351.0,8879406632350768.0,1.4090212187646336e+18
357423.5935197531,2.085446456843679e+16,1.5764041443751393e+18,3707687780407.0625,16778728500619.867,47628612465857.44,730578289810078.2,8879828806894703.0,1.5458711576812516e+18
393166.95287172846,2.085554942223471e+16,1.7261072845899507e+18,3707880655119.6885,16779601333556.812,47631090113542.64,730616293932415.9,8880290684336686.0,1.6955727096173455e+18
432484.6481589014,2.0856735656102284e+16,1.8897783831192302e+18,3708091554059.9316,16780555733119.621,47633799298505.05,730657849556775.2,8880795724423293.0,1.8592420714425628e+18
475734.11297479155,2.085803197035729e+16,2.0686117361857802e+18,3708322024045.733,16781598699259.871,47636759890999.93,730703261468843.6,8881347631320210.0,2.0380735266420204e+18
