t(s),Total solute volume 1,Total retention volume 1,Total 1 volume 1,Total 2 volume 1,Total 3 volume 1,Total 4 volume 1,Total 5 volume 1,Total 6 volume 1
1.0,3554462719481924.5,3582279046780355.5,27816327298426.99,0.0,0.0,0.0,0.0,0.0
2.1,5460799916687772.0,5506406496734366.0,42734822190636.57,260830702.9044968,2002733864.7594311,76689987259.40623,1665261811777.7659,1127542492341.0684
3.3100000000000005,6993859517766367.0,7056231876023962.0,54732144745266.15,701421979.4300562,5385675595.945577,206127594714.74554,4447703007404.646,2980295812635.5244
4.641000000000001,8363047155488232.0,8442798999372450.0,65447049032503.66,1321814893.916357,10149143611.371851,388348276618.76514,8349496433472.141,5555479183111.976
6.105100000000002,9646385953624060.0,9744909752345440.0,75490123259177.14,2137385190.347551,16411197325.78686,627892060680.3893,13469030235760.738,8918204583261.023
7.7156100000000025,1.0883003091077248e+16,1.1002249338422152e+16,85167566311068.39,3171535004.7545247,24351521995.5025,931656762035.4082,19954043131290.11,13165458083485.713
9.487171000000004,1.209604196883327e+16,1.2238461012376446e+16,94660492295735.55,4454049860.150125,34198814408.130405,1308420065006.9832,27991874769467.09,18419603548718.137
11.435888100000005,1.3300771798353512e+16,1.3469317374351492e+16,104088394015380.61,6020880631.954685,46229109141.24038,1768779026809.723,37808372872062.05,24827780093940.164
13.579476910000007,1.450810387616475e+16,1.4706268059228728e+16,113536660391756.36,7914480908.514994,60768368998.86838,2325252740699.383,49670164210823.164,32563422870848.97
15.937424601000009,1.572633381341281e+16,1.595820244956988e+16,123070210689186.55,10184446038.782738,78197391747.69814,2992474206569.5723,63888774158125.305,41828795265427.01
18.53116706110001,1.6962091115500784e+16,1.7232415143179426e+16,132740925671243.61,12888368148.074629,98958375030.07027,3787446593361.628,80826078989448.03,52857729681382.81
21.384283767210015,1.822089642009589e+16,1.8535175943422316e+16,142592008396321.25,16092880959.474138,123562938568.95372,4729856499345.739,100900905280530.69,65917097330689.18
24.522712143931017,1.950751108249946e+16,1.987208747838843e+16,152660719978205.4,19874895878.81947,152601614797.57172,5842444850846.276,124596692785871.8,81304061763357.75
27.97498335832412,2.0826173752472772e+16,2.1248321431849148e+16,162980230970007.4,24323048674.857246,186754956180.114,7151441144969.8545,152470116712321.62,99334812544187.81
31.772481694156536,2.218077519938834e+16,2.2668781633999144e+16,173580989492347.84,29539389362.41907,226806509234.32037,8687070239339.505,185160428499857.56,120321600480659.22
35.949729863572195,2.357499535584255e+16,2.413822063310825e+16,184491793687207.66,35641352472.1066,273657940072.95068,10484141510349.465,223398998094506.16,144541044681083.66
40.544702849929415,2.501240537183907e+16,2.5661324281132468e+16,195740590344968.56,42764034116.21236,328346513099.4969,12582726001953.156,268018159006813.0,172206323392418.25
45.59917313492236,2.6496525343483684e+16,2.7242771135958508e+16,207354926641339.12,51062779107.09013,392064946239.6586,15028919368265.994,319958177292991.3,203460641446824.1
51.1590904484146,2.8030830961619348e+16,2.888726769825737e+16,219362002125891.62,60716063289.56509,466183526894.1448,17875682753281.957,380271339913561.75,238400812255084.5
57.27499949325607,2.961871445955101e+16,3.059955571026659e+16,231788363063095.47,71928656249.06621,552274372953.5896,21183754642870.348,450122955090994.06,277121974889488.2
64.00249944258168,3.1263411616489868e+16,3.238438395915452e+16,244659331138135.22,84935053054.11267,652137750631.5073,25022629842947.35,530790142606210.4,319763166273684.6
71.40274938683986,3.296789948493369e+16,3.424643491124394e+16,257998203068198.25,100003140886.2649,767830186569.681,29471597796504.664,623660046019172.8,366537746098884.56
79.54302432552385,3.4734757427167616e+16,3.619019696215099e+16,271825163099787.38,117438007500.6037,901693660249.0791,34620818108053.594,730229167975094.1,417745254132656.75
88.49732675807624,3.656597916559364e+16,3.821977675502727e+16,286155812176758.8,137585721149.30737,1056384570087.995,40572391422081.94,852105013899224.6,473770401644322.25
98.34705943388387,3.846272922948296e+16,4.033865279762041e+16,300999261994730.2,160836839375.8473,1234900613026.8975,47441365500721.42,991010440187573.8,535076763002053.56
109.18176537727226,4.042504908368275e+16,4.254938049572675e+16,316355835304102.44,187629350866.79083,1440603309700.8772,55356603398904.87,1148790330292591.8,602200410387865.6
121.09994191499949,4.245153083095111e+16,4.485326800720813e+16,332214512473957.9,218450725750.78458,1677233687045.3108,64461434515884.25,1327419668806662.0,675745876047635.4
134.20993610649944,4.453898613494167e+16,4.725005008132813e+16,348550340670249.8,253838747155.36115,1948918611150.8774,74914010539046.62,1529011859616357.8,756384978202453.6
148.6309297171494,4.6682143319597624e+16,4.973759170828025e+16,365322063545415.06,294380820439.4641,2260165445158.3105,86887296950260.31,1755826248467594.0,844858233453806.2
164.49402268886433,4.8873406180980424e+16,5.231165417494519e+16,382470233877246.1,340711504810.41907,2615843078416.7246,100568646386271.45,2010274180323928.8,941978378793997.0
181.94342495775078,5.1102704543769464e+16,5.496575316434872e+16,399916044175059.75,393508083179.6106,3021147919881.542,116158921956460.06,2294923411670655.0,1048635586774155.1
201.13776745352587,5.335746028575544e+16,5.769113280656679e+16,417561060899303.75,453484079946.56104,3481554169298.774,133871166028542.05,2612501169794468.5,1165804085839851.0
222.25154419887846,5.5622684961644216e+16,6.047687244885221e+16,435287988527371.25,521380756038.72345,4002748597646.2495,153928843103142.25,2965896509739152.5,1294550016484542.0
245.47669861876633,5.788121757824563e+16,6.331013561820109e+16,452962530384887.0,597956762186.8431,4590551230845.351,176563725157188.7,3358162833249548.5,1436040443170828.0
271.024368480643,6.011410417883027e+16,6.617656390945632e+16,470436359208228.6,683976321521.6951,5250824786959.727,202013535494044.94,3792521529177637.5,1591553505637581.5
299.1268053287073,6.230111456494642e+16,6.9060812295449656e+16,487551160871229.4,780196542300.7302,5989377475691.831,230519523022793.03,4272367731771116.5,1762489740820114.8
330.03948586157804,6.442138494845963e+16,7.194721591277296e+16,504143663564625.94,887354719939.8195,6811865745892.674,262324200776236.12,4801279233094161.0,1950384646412576.0
364.0434344477359,6.645416758062318e+16,7.482057074701098e+16,520051504101425.25,1006156745459.2312,7723705539452.643,297669544105720.8,5383029661977257.0,2156922593918428.0
401.44777789250946,6.837965876262607e+16,7.766700111290331e+16,535119707566901.75,1137267945327.2078,8730002198570.425,336795994343896.0,6021607143813488.0,2383952234408994.0
442.5925556817604,7.0179865230141656e+16,8.047487545256203e+16,549207467230728.2,1281307768604.6738,9835509866153.543,379942637584535.0,6721239726641025.0,2633503573329328.0
487.8518112499365,7.183945692831417e+16,8.323571986036402e+16,562194817923403.4,1438849637255.137,11044630449728.191,427348908246849.8,7486428806453026.0,2907806919339666.0
537.6369923749302,7.334654388136205e+16,8.594506800129611e+16,573988715384173.2,1610426920079.3152,12361459494902.799,479258087363008.75,8321991497330123.0,3209313933441603.0
592.4006916124232,7.46933090841269e+16,8.860317949542029e+16,584527988883949.9,1796545346434.2031,13789881378467.89,535922716291536.25,9233112263976132.0,3540721015416678.5
652.6407607736655,7.587643098568048e+16,9.121555923000338e+16,593786647284260.5,1997701261956.0034,15333709230803.887,597611829364582.9,1.0225403094922558e+16,3904995262258767.0
718.9048368510321,7.689724032597467e+16,9.379321959476707e+16,601775106267776.1,2214404033500.6187,16996856610118.582,664619641120764.8,1.1304970044140006e+16,4305403216620273.0
791.7953205361354,7.776157743828104e+16,9.635264707766144e+16,608539071563044.5,2447199795910.736,18783519413026.6,737275040317918.6,1.247848221424642e+16,4745542594043898.0
871.9748525897489,7.84793461677837e+16,9.891546281889674e+16,614156048043333.2,2696692816674.098,20698339483766.367,815950994316328.1,1.3753237434312522e+16,5229377142140465.0
960.1723378487239,7.906379553670341e+16,1.015078002590382e+17,618729718313181.1,2963560269393.44,22746517665484.94,901072811296966.6,1.5137217360262148e+16,5761274754527401.0
1057.1895716335964,7.953059458702917e+16,1.0415945675745787e+17,622382702814579.9,3248556342163.5083,24933845069868.22,993124194989979.1,1.6639123917805874e+16,6346048953406068.0
1163.9085287969563,7.989679297930581e+16,1.069029038843423e+17,625248425925757.0,3552502441686.2114,27266627734853.2,1092650184334625.0,1.8268389280307556e+16,6989003884291854.0
1281.299381676652,8.017977411192371e+16,1.0977225730350158e+17,627462923538298.6,3876261710084.9395,29751490997336.004,1200256387863822.5,2.0035153080627908e+16,7695983046840530.0
1410.4293198443174,8.03963052348909e+16,1.1280230798343245e+17,629157409675306.4,4220697906675.0645,32395063973965.67,1316604345174515.0,2.1950203114165264e+16,8473422117645917.0
1552.4722518287492,8.056177024110358e+16,1.1602770122111554e+17,630452272665186.0,4586620562724.995,35203558769826.734,1442403286123229.5,2.402487885238775e+16,9328406389503174.0
1708.7194770116243,8.068963926998704e+16,1.1948232147992024e+17,631452924505608.0,4974719813481.067,38182270508637.28,1578398910206886.0,2.6270939856589704e+16,1.0268733528308862e+16
1880.5914247127869,8.079119160695594e+16,1.2319890511820816e+17,632247632409930.4,5385495161104.591,41335030795051.2,1725359989199211.8,2.870040286426934e+16,1.130298249941751e+16
2069.6505671840655,8.087547239283574e+16,1.2720886698857371e+17,632907180048628.4,5819182521693.729,44663647988576.23,1884063565290147.2,3.1325351407234044e+16,1.2440589612654928e+16
2277.615623902472,8.094943617347074e+16,1.3154229746802198e+17,633485990921007.5,6275683373199.065,48167363561957.55,2055279292421547.5,3.415772029455591e+16,1.3691932669717574e+16
2506.3771862927197,8.101821542235664e+16,1.362280684504943e+17,634024229711569.6,6754498938452.847,51842347054882.63,2239753119846423.8,3.720905465125161e+16,1.5068424181334924e+16
2758.0149049219917,8.108545049207269e+16,1.4129398180220723e+17,634550384360893.5,7254671473799.489,55681245515821.46,2438190142619648.0,4.04902402832873e+16,1.658261458287691e+16
3034.816395414191,8.11536265171692e+16,1.4676690028173085e+17,635083902534336.2,7774734208491.079,59672799301230.49,2651236140268839.0,4.401119983832758e+16,1.824830634992088e+16
3339.2980349556105,8.122437823268336e+16,1.5267281534273856e+17,635637577010466.4,8312671470120.285,63801536029909.89,2879457160389129.5,4.7780548238292376e+16,2.008067992686308e+16
3674.227838451172,8.129874076557664e+16,1.5903682418155875e+17,636219508274792.1,8865891029677.129,68047558315591.95,3123316505051463.0,5.180520150828028e+16,2.2096432445030036e+16
4042.6506222962894,8.137733942379472e+16,1.658830060309507e+17,636834589733123.9,9431211534319.871,72386447303466.58,3383148633142722.5,5.608993540539595e+16,2.4313930320046556e+16
4447.915684525919,8.146052221410981e+16,1.732342026034811e+17,637485544743234.5,10004868791900.89,76789310908902.62,3659129766193652.5,6.063689392931494e+16,2.6753376969418584e+16
4893.707252978511,8.15484447995995e+16,1.811117189356472e+17,638173591458133.2,10582545325282.63,81223010671646.81,3951245339273727.0,6.544505258411133e+16,2.94369970652073e+16
5384.077978276362,8.164111960859384e+16,1.8953496915794147e+17,638898827133101.6,11159427753912.781,85650602204900.55,4259254841953201.5,7.050964692923983e+16,3.238923892106243e+16
5923.485776103998,8.17384401517806e+16,1.9852109809580493e+17,639660418421749.1,11730295976796.43,90032019738296.23,4582655031819884.0,7.582158337649258e+16,3.5636996801575184e+16
6516.834353714399,8.184018963137949e+16,2.0808461536048822e+17,640456668748109.4,12289646693945.773,94325024221866.4,4920642970804095.0,8.136685628356549e+16,3.920985513507488e+16
7169.5177890858395,8.194604065408534e+16,2.182370846282818e+17,641285016060446.8,12831851465500.54,98486416512960.06,5272080831453188.0,8.712600304532472e+16,4.3140356813379736e+16
7887.469567994424,8.205555088255166e+16,2.2898691745580797e+17,642141998801736.9,13351346319507.227,102473492697280.94,5635464937242604.0,9.30736368174706e+16,4.746429798072456e+16
8677.216524793868,8.216815800750173e+16,2.403393279234036e+17,643023216563696.6,13842846054674.895,106245688933089.17,6008902011921288.0,9.917810419569499e+16,5.222105195673459e+16
9545.938177273256,8.228317648266237e+16,2.5229651073603517e+17,643923304535947.1,14301572171456.834,109766330872969.53,6390096068518307.0,1.0540132176533323e+17,5.745392521194087e+16
10501.531995000581,8.239979790838829e+16,2.6485810974720243e+17,644835936508365.4,14723479306221.36,113004371568661.64,6776349694033665.0,1.1169884973225382e+17,6.321054862514316e+16
11552.68519450064,8.251709661582707e+16,2.7802204443685274e+17,645753868570775.6,15105461804802.242,115935976910977.81,7164583581825392.0,1.1802026132681634e+17,6.954330760509724e+16
12708.953713950705,8.263404174421331e+16,2.917857566795804e+17,646669033625165.4,15445520419589.227,118545804979627.61,7551377913336028.0,1.243098616042747e+17,7.650981505873206e+16
13980.849085345777,8.274951680254133e+16,3.061479272001628e+17,647572694467579.4,15742869790804.99,120827830873620.42,7933038472242497.0,1.3050779689311549e+17,8.417343163713128e+16
15379.933993880357,8.286234728088173e+16,3.211106887835766e+17,648455659863153.0,15997970915402.123,122785595788094.0,8305689081426184.0,1.3655157500505186e+17,9.260383818965002e+16
16918.927393268394,8.297133627805974e+16,3.366823307311063e+17,649308563353836.8,16212479341528.693,124431809259928.0,8665390025409653.0,1.4237798567180573e+17,1.0187766590387534e+17
18611.820132595236,8.307530733100411e+16,3.528804467163454e+17,650122198423332.1,16389108885769.791,125787303037517.47,9008279577685198.0,1.4792537099772125e+17,1.1207919019958818e+17
20474.00214585476,8.31731526998002e+16,3.6973542847594765e+17,650887896356008.4,16531421115020.652,126879415194368.39,9330732730416008.0,1.531361492430136e+17,1.2330109507005213e+17
22522.40236044024,8.326388436326936e+16,3.87294155375144e+17,651597925307186.4,16643560943527.465,127739960690102.17,9629528005425810.0,1.579594463463568e+17,1.356453152131513e+17
24775.642596484264,8.334668404452432e+16,4.05623681940523e+17,652245881782306.1,16729966462430.89,128403004190646.23,9902010244441906.0,1.623536448418708e+17,1.4922396395725104e+17
27254.206856132692,8.342094788678802e+16,4.2481469103554854e+17,652827040251209.1,16795084728255.025,128902678656096.86,1.0146235090794622e+16,1.662886275994302e+17,1.6416035565490093e+17
29980.627541745966,8.348632112667008e+16,4.449844693314379e+17,653338624486561.9,16843123601973.28,129271280653905.47,1.0361080090244966e+16,1.697474831930094e+17,1.8059013189277088e+17
32979.69029592056,8.35427184343156e+16,4.6627918281226925e+17,653779966737190.4,16877862920985.3,129537821090249.89,1.054630848812825e+16,1.7272745867552614e+17,1.9866250156355066e+17
36278.65932551262,8.35903266076965e+16,4.8887528834928454e+17,654152528812185.0,16902537655061.637,129727128454640.05,1.0702575189758634e+16,1.7523999875897232e+17,2.1854160559793558e+17
39907.525258063884,8.36295880047272e+16,5.129800118796199e+17,654459772427252.1,16919793600305.719,129859508826161.64,1.083136990929836e+16,1.7730979687666803e+17,2.4040801801407264e+17
43899.277783870275,8.366116530503826e+16,5.388309455708272e+17,654706883444713.0,16931705317834.04,129950883634658.9,1.0934899708766484e+16,1.7897289511025738e+17,2.6446039597436854e+17
48290.20556225731,8.36858905958166e+16,5.6669494869226726e+17,654900373440175.1,16939838695791.635,130013269925523.92,1.101592089633728e+16,1.8027399090279485e+17,2.909172928152568e+17
53120.22611848305,8.370470394883987e+16,5.968666570180242e+17,655047599031685.2,16945337862191.787,130055447527885.64,1.107753724648008e+16,1.8126321784635613e+17,3.2001914959192634e+17
58433.24873033136,8.371858815350792e+16,6.296669892977396e+17,655156251127318.2,16949017981692.742,130083671383034.92,1.1122986295692926e+16,1.8199274332365702e+17,3.5203048258438925e+17
64277.57360336451,8.372850674003963e+16,6.654420670970186e+17,655233869920261.5,16951450362680.781,130102324845507.77,1.115543692444019e+16,1.825135493595153e+17,3.872422864278948e+17
70706.33096370097,8.37353517145181e+16,7.045629271703218e+17,655287435884860.4,16953032365877.635,130114456318098.94,1.1177819067487866e+16,1.8287272646428813e+17,4.259746749994596e+17
77777.96406007107,8.373990566112373e+16,7.474263083987377e+17,655323073204311.6,16954040081647.469,130121525217445.34,1.1192700565701572e+16,1.8311151870530867e+17,4.685797848280997e+17
85556.76046607818,8.374282026201112e+16,7.944566634559474e+17,655345881676113.5,16954630136394.945,130126049429030.42,1.1202218060629084e+16,1.8326423010629238e+17,5.1544496846577376e+17
94113.436512686,8.374461103650627e+16,8.461093891985277e+17,655359895543229.4,16954992674879.197,130128829172281.02,1.120806027336057e+16,1.833579660854239e+17,5.6699630808584704e+17
103525.78016395462,8.374566515387211e+16,9.028751623641207e+17,655368144633623.1,16955206078695.338,130130465433863.1,1.1211494632610276e+16,1.834130666344873e+17,6.237024821270048e+17
113879.3581803501,8.374625853185877e+16,9.652851780980338e+17,655372788166504.1,16955326206805.068,130131386509268.28,1.1213423742018144e+16,1.8344401546653568e+17,6.860790208567379e+17
125268.29399838512,8.37465775475723e+16,1.0339170748849024e+18,655375284652701.9,16955390790856.787,130131881703781.7,1.1214456846224242e+16,1.8346058824783478e+17,7.546929896861235e+17
137796.12339822366,8.374674136889342e+16,1.1094013615106097e+18,655376566651206.2,16955423956134.365,130132135996644.12,1.121498318331325e+16,1.8346903024617936e+17,8.301681425856193e+17
151576.73573804603,8.374682201278362e+16,1.1924282288030607e+18,655377197737234.1,16955440282318.16,130132261176720.9,1.1215237772003786e+16,1.8347311217857475e+17,9.131905919404997e+17
166735.40931185064,8.37468618848016e+16,1.2837545999726548e+18,655377509759299.5,16955448354323.27,130132323068356.3,1.1215242763729712e+16,1.8347498346870838e+17,1.0045150465742333e+18
183409.95024303574,8.374688824172077e+16,1.3842112847288684e+18,655377716017746.0,16955453690225.396,130132363981079.27,1.121524606343607e+16,1.8347501036047e+17,1.1049716745295493e+18
201751.94526733932,8.3746892385984e+16,1.4947132485985313e+18,655377748449049.2,16955454529222.656,130132370414042.92,1.1215246582272106e+16,1.834750145888452e+17,1.2154736294680394e+18
221928.13979407327,8.374689604385989e+16,1.6162650179917627e+18,655377777074088.1,16955455269751.861,130132376092007.86,1.1215247040213052e+16,1.8347501832079818e+17,1.3370253909784556e+18
244121.9537734806,8.374690003673666e+16,1.7499714943602893e+18,655377808320704.6,16955456078101.283,130132382289980.08,1.121524754009369e+16,1.834750223945292e+17,1.4707318587422413e+18
268535.1491508287,8.374690442790285e+16,1.8970480498157553e+18,655377842684170.0,16955456967083.508,130132389106200.4,1.12152480898374e+16,1.83475026874614e+17,1.617808404734645e+18
295389.6640659116,8.374690925813573e+16,2.0588315728777224e+18,655377880483593.9,16955457944953.902,130132396603965.23,1.1215248694549238e+16,1.8347503180265642e+17,1.7795919173873472e+18
324929.6304725028,8.37469145713667e+16,2.23679261584363e+18,655377922062760.6,16955459020606.137,130132404851466.94,1.1215249359729054e+16,1.834750372234764e+17,1.9575529489031168e+18
357423.5935197531,8.374692041589046e+16,2.4325487559045724e+18,655377967799607.5,16955460203817.533,130132413923672.16,1.1215250091423106e+16,1.834750431863474e+17,2.1533090763689866e+18
393166.95287172846,8.374692684483027e+16,2.6478792912646267e+18,655378018109855.5,16955461505342.701,130132423903041.5,1.1215250896281986e+16,1.8347504974546794e+17,2.36863959787453e+18
