t(s),Total solute volume 1,Total retention volume 1,Total 1 volume 1,Total 2 volume 1,Total 3 volume 1,Total 4 volume 1,Total 5 volume 1,Total 6 volume 1
1.0,2810460563542488.0,2816513683197713.5,6053119655230.486,0.0,0.0,0.0,0.0,0.0
2.1,4295100842342483.5,4344734322749369.0,9250710642479.826,4683937639.2917385,25623498302.819508,610890974573.5269,13968172288790.4,25773399065116.867
3.3100000000000005,5469678111095600.0,5589169884244532.0,11780493625664.564,12523624584.285303,68510482436.64896,1633481241351.223,37336505903232.2,68660258271641.17
4.641000000000001,6500203718630391.0,6715681643646544.0,14000020819144.395,23453427838.850655,128301916443.20018,3059382330462.0293,69915354709261.99,128351411813001.19
6.105100000000002,7447601250967119.0,7787050053617620.0,16040508313140.91,37667950813.246864,206062385807.94684,4914182472507.803,112291205142767.53,205959176385495.47
7.7156100000000025,8341512381862433.0,8835748119537936.0,17965797795003.09,55483457659.041016,303522019336.509,7239392885679.292,165413987570792.7,303257553947041.0
9.487171000000004,9198597324772634.0,9881978942945802.0,19811771724116.6,77301505059.89194,422877538721.047,10087725215951.693,230489564182190.9,422492378007142.7
11.435888100000005,1.0029017232662558e+16,1.0940078436024968e+16,21600315004101.543,103597279713.89514,566728459741.0956,13521593207730.314,308945700721472.8,566323268689645.9
13.579476910000007,1.0839247222810792e+16,1.2021313431627848e+16,23345373623279.707,134916533946.98175,738060329228.7982,17612739967085.676,402423682610894.75,737811435752654.6
15.937424601000009,1.1633472877642692e+16,1.3135291527137602e+16,25055962412137.26,171876225573.91025,940248225966.7308,22442354003945.863,512781056075721.94,940427152551539.5
18.53116706110001,1.2414355568467522e+16,1.4290753540258992e+16,26737813383251.637,215167013727.7159,1177070414485.5474,28101434342840.336,642100006409434.1,1178066480227696.5
21.384283767210015,1.3183486969084508e+16,1.5496061977188238e+16,28394354654076.887,265556817416.42133,1452727812212.4036,34691302692313.203,792699006986388.4,1455072059141293.2
24.522712143931017,1.3941679149429484e+16,1.6759528135115518e+16,30027335245022.062,323895079952.7881,1771867317625.772,42324217812873.03,967146666006351.0,1776255004224203.2
27.97498335832412,1.4689162665580698e+16,1.8089648388537692e+16,31637251721775.938,391117582807.264,2139608143397.448,51124073735560.164,1168277307595747.0,2146916364177711.0
31.772481694156536,1.542573006997314e+16,1.949528672193565e+16,33223657284725.055,468251736702.40686,2561570759575.1616,61227174996640.08,1399208109125908.2,2572867888058968.0
35.949729863572195,1.6150844296596832e+16,2.0985823810560336e+16,34785395206859.996,556422288234.8419,3043908109263.8857,72783084074714.39,1663357699138464.8,3060453005145995.5
40.544702849929415,1.6863721862029066e+16,2.257128418103076e+16,36320778030637.086,656857341273.1918,3593338545871.008,85955531875756.89,1964466062250369.2,3616569750957750.0
45.59917313492236,1.7563396116169876e+16,2.426244844287923e+16,37827723796430.66,770894530006.1553,4217179599905.42,100923374779950.81,2306615464920433.0,4248697689082609.5
51.1590904484146,1.8248764018496716e+16,2.6070955502198436e+16,39303856788714.28,899987125381.9686,4923381381805.473,117881575402879.86,2694251990798739.0,4964930692204163.0
57.27499949325607,1.8918619860725524e+16,2.800939907589218e+16,40746580167776.62,1045709837912.5985,5720558324617.376,137042182633556.36,3132207239051940.5,5774016945150847.0
64.00249944258168,1.9571680005161636e+16,3.0091423052175116e+16,42153129251258.66,1209764116898.2288,6618018173147.291,158635292271122.62,3625719852763532.0,6685406990437611.0
71.40274938683986,2.0206603274224616e+16,3.233182075801937e+16,43520615429268.45,1393982842841.7314,7625787655167.172,182909983252110.2,4180456824070630.0,7709310290544753.0
79.54302432552385,2.0822011603455772e+16,3.474664357999305e+16,44846070646910.22,1600334452758.4626,8754635052029.906,210135244382097.8,4802534936490880.0,8856760755512528.0
88.49732675807624,2.141651476916262e+16,3.735332436976207e+16,46126500662576.94,1830926700104.0688,10016090772201.172,240600929219815.25,5498543181351554.0,1.0139691971893252e+16
98.34705943388387,2.198874152529967e+16,4.017082054749831e+16,47358952110191.53,2088010398319.896,11422467836749.623,274618797994409.53,6275567432231879.0,1.1571023361627076e+16
109.18176537727226,2.2537377636141652e+16,4.32197808532683e+16,48540594413319.336,2373983597317.4624,12986884734540.145,312523721049547.7,7141218989620438.0,1.3164759043711514e+16
121.09994191499949,2.306120945590118e+16,4.65227384605964e+16,49668813646045.664,2691396672077.2607,14723293268136.31,354675125298351.4,8103668751685387.0,1.4936101624125312e+16
134.20993610649944,2.355917023302084e+16,5.010433188109877e+16,50741312262080.55,3042958751305.8296,16646513731156.38,401458762196942.1,9171688696024020.0,1.6901583405112378e+16
148.6309297171494,2.4030385439293704e+16,5.3991553966030744e+16,51756206723473.516,3431545784732.3823,18772279050200.92,453288863207509.9,1.0354702079525054e+16,1.907921755244598e+16
164.49402268886433,2.4474213226885492e+16,5.821402850444837e+16,52712114635840.33,3860210354304.1807,21117288466993.18,510610728474471.8,1.166284331879685e+16,2.1488671616834176e+16
181.94342495775078,2.4890276544590036e+16,6.280431350479717e+16,53608223919387.336,4332193098389.0215,23699270044629.418,573903769222399.0,1.3107027961417658e+16,2.4151465542504696e+16
201.13776745352587,2.5278484342177292e+16,6.7798230226519704e+16,54444338478089.88,4850935362404.989,26537049883228.438,643684997209214.5,1.4699032563845288e+16,2.7091195999564324e+16
222.25154419887846,2.5639040452484144e+16,7.323521734038891e+16,55220897329460.43,5420092435287.211,29650624540834.82,720512928148918.0,1.6451583714032636e+16,3.033378863141768e+16
245.47669861876633,2.5972439957141016e+16,7.915871014541278e+16,55938966776861.8,6043546495046.659,33061231863664.188,804991842382046.4,1.83784549192963e+16,3.390777968145782e+16
271.024368480643,2.627945393983151e+16,8.561654545039614e+16,56600207571168.3,6725418178084.326,36791414288773.72,897776326354841.4,2.0494569646833544e+16,3.784462849733818e+16
299.1268053287073,2.6561104391108424e+16,9.266139344239693e+16,57206820861097.77,7470075509099.554,40865067709513.88,999576002886335.0,2.2816108459387624e+16,4.217906262493485e+16
330.03948586157804,2.6818631590524452e+16,1.0035121853561478e+17,57761477941382.77,8282138779155.993,45307468177535.73,1111160346161731.2,2.5360617918194772e+16,4.694945759583542e+16
364.0434344477359,2.7053456547652024e+16,1.0874977177079438e+17,58267239358922.41,9166479832863.79,50145268022533.35,1233363467676294.2,2.8147118702341776e+16,5.21982540659101e+16
401.44777789250946,2.7267141066145096e+16,1.1792711778884018e+17,58727468899529.266,10128214114274.965,55406452361651.35,1367088750356141.5,3.1196210182374456e+16,5.797241565458928e+16
442.5925556817604,2.74613477621783e+16,1.2796019972387131e+17,59145747476441.6,11172683718129.86,61120246407169.26,1513313198014394.5,3.4530168447083908e+16,6.432393163899292e+16
487.8518112499365,2.763780198902602e+16,1.3893344555467363e+17,59525791124269.1,12305429594282.11,67316963440410.97,1673091354391617.2,3.817303447692268e+16,7.131036955017449e+16
537.6369923749302,2.7798257161164692e+16,1.509394195313694e+17,59871376314776.06,13532150958526.883,74027782802143.94,1847558628670706.2,4.215068875018494e+16,7.899548368127346e+16
592.4006916124232,2.7944464493258376e+16,1.6407952227171645e+17,60186274781361.19,14858649878482.947,81284446786834.16,2037933841207991.2,4.6490908029514424e+16,8.744988653628893e+16
652.6407607736655,2.8078147717650852e+16,1.7846474301508138e+17,60474199066150.41,16290758941340.799,89118864989575.66,2245520773280156.8,5.122339938442748e+16,9.675179131672563e+16
718.9048368510321,2.820098294976112e+16,1.9421646734763994e+17,60738759154539.4,17834249891679.527,97562614552319.88,2471708467280834.5,5.637980564660394e+16,1.0698783466039578e+17
791.7953205361354,2.8314583551276204e+16,2.1146734348513805e+17,60983429873891.5,19494721181022.92,106646325048085.69,2717969978786919.0,6.199367546394111e+16,1.1825399001503088e+17
871.9748525897489,2.8420489601765612e+16,2.3036220993550627e+17,61211528217754.266,21277462533895.81,116398937633427.19,2985859229470523.5,6.8100389922001176e+16,1.3065658325388424e+17
960.1723378487239,2.852016142685822e+16,2.5105908708109446e+17,61426199407018.18,23187294953966.203,126846829842863.08,3277005550680872.5,7.473703635415765e+16,1.4431342342519354e+17
1057.1895716335964,2.8614976536140716e+16,2.7373023494255635e+17,61630410294856.01,25228385122400.324,138012800289512.03,3593105442988953.5,8.194221849502493e+16,1.5935506287269494e+17
1163.9085287969563,2.8706229283944944e+16,2.985632791450436e+17,61826948636161.625,27404033938992.977,149914911903028.0,3935911009171785.0,8.975579059374653e+16,1.7592620236370154e+17
1281.299381676652,2.879513256770781e+16,3.2576240694597754e+17,62018426745469.195,29716440088253.652,162565198525342.72,4307214450092199.0,9.821850156521371e+16,1.9418725829760483e+17
1410.4293198443174,2.8882820908727612e+16,3.555496351629048e+17,62207288132239.6,32166441038757.805,175968248032221.47,4708827949060572.0,1.0737153381839882e+17,2.1431611050951472e+17
1552.4722518287492,2.8970354307640544e+16,3.8816615204231846e+17,62395815804727.23,34753235856297.344,190119685936521.8,5142558216540762.0,1.172559201993119e+17,2.3651005058122694e+17
1708.7194770116243,2.9058722322765496e+16,4.23873735646739e+17,62586141053846.16,37474096660439.92,205004596825676.9,5610174931527592.0,1.2791182170619915e+17,2.6098795185170704e+17
1880.5914247127869,2.914884787691244e+16,4.629562523527039e+17,62780251652207.78,40324078474976.53,220595936963814.12,6113372309128789.0,1.3937764851819344e+17,2.8799268338137738e+17
2069.6505671840655,2.9241590353023508e+16,5.0572124073219046e+17,62979998521455.93,43295740555569.96,236853009621074.44,6653723059330743.0,1.5168900773466288e+17,3.177937908364756e+17
2277.615623902472,2.9337747588975256e+16,5.525015886656775e+17,63187100028638.97,46378895885760.23,253720094430156.03,7232624096440783.0,1.6487746343519168e+17,3.5069046745472486e+17
2506.3771862927197,2.9438056426889492e+16,6.036573152864266e+17,63403143169306.016,49560409177191.84,271125342010559.56,7851233532610728.0,1.789690987030928e+17,3.8701483772947674e+17
2758.0149049219917,2.9543191514047576e+16,6.595774746112214e+17,63629580984945.75,52824067029913.555,288980063266799.3,8510398765846661.0,1.939828756472505e+17,4.271355749727947e+17
3034.816395414191,2.9653762094330148e+16,7.206822048417595e+17,63867725652455.98,56150546403833.87,307178556422849.9,9210575879311606.0,2.099287988045818e+17,4.7146187123505574e+17
3339.2980349556105,2.9770306575929708e+16,7.874249567173167e+17,64118736784197.36,59517508584744.99,325598620510793.75,9951741131875192.0,2.2680590022572118e+17,5.204477739179112e+17
3674.227838451172,2.9893284719322604e+16,8.60294946351282e+17,64383604602608.9,62899844647633.52,344102897583337.44,1.0733296065283948e+16,2.4460008161170627e+17,5.74596897608136e+17
4042.6506222962894,3.0023067366941868e+16,9.398198930256332e+17,64663127820193.98,66270094227592.91,362541162998206.75,1.155396870019346e+16,2.6328187050185616e+17,6.344675120715969e+17
4447.915684525919,3.0159923741564164e+16,1.0265691206576081e+18,64957886283050.32,69599051469144.71,380753639703392.94,1.24117144477864e+16,2.828041738330777e+17,7.006779980577243e+17
4893.707252978511,3.0304006483581784e+16,1.12115712307719e+18,65268208744463.445,72856559832000.75,398575345765308.0,1.3303621709828458e+16,3.031001428084816e+17,7.739126519609546e+17
5384.077978276362,3.045533478712685e+16,1.224247717501045e+18,65594136543850.42,76012480924070.19,415841394089969.1,1.4225828628074586e+16,3.2408129676461037e+17,8.549278093096735e+17
5923.485776103998,3.061377623836135e+16,1.336558936799818e+18,65935384490458.85,79037802338032.03,432393052818181.06,1.5173458976891104e+16,3.4563608836745536e+17,9.44558246977466e+17
6516.834353714399,3.077902825844483e+16,1.458868837819927e+18,66291300895635.43,81905827126896.22,448084252655104.06,1.614058661252023e+16,3.6762912436128435e+17,1.0437238172069971e+18
7169.5177890858395,3.095060040284383e+16,1.5920224278316104e+18,66660829449471.984,84593365655743.27,462788107582530.6,1.7120238967758024e+16,3.8990127996442394e+17,1.1534362661938982e+18
7887.469567994424,3.1127799117768932e+16,1.7369399311619208e+18,67042476389567.53,87081832610150.08,476402917136977.7,1.8104450486163252e+16,4.1227095333462605e+17,1.2748062009972265e+18
8677.216524793868,3.1309717152242988e+16,1.8946266275268936e+18,67434287697002.336,89358142973461.08,488857069329554.1,1.9084376422133296e+16,4.3453669563909594e+17,1.4090501888134208e+18
9545.938177273256,3.1495229470395124e+16,2.0661844938546102e+18,67833840292359.984,91415301858659.47,500112269091034.4,2.0050475015203484e+16,4.564813941703898e+17,1.5574980337873725e+18
10501.531995000581,3.1682998800294824e+16,2.2528258559006336e+18,68238253986739.07,93252604840613.34,510164636111516.7,2.099276288336784e+16,4.778781163911661e+17,1.7216003223308667e+18
11552.68519450064,3.187149275638124e+16,2.4558892158865587e+18,68644228359727.62,94875397647585.31,519043392101758.9,2.19011419877099e+16,4.984975711847021e+17,1.9029364469396557e+18
12708.953713950705,3.2059014734363428e+16,2.6768573540159217e+18,69048109300235.875,96294395562891.42,526807139165291.6,2.2765789098695384e+16,5.181169765755556e+17,2.1032234239632753e+18
13980.849085345777,3.2243749684571908e+16,2.917377712903616e+18,69445987592213.65,97524619813309.0,533538042386263.2,2.357758923784215e+16,5.3652990816519706e+17,2.3243259571662147e+18
15379.933993880357,3.2423824557009536e+16,3.179284969925063e+18,69833829099953.04,98584063960237.0,539334534710673.3,2.4328584754191076e+16,5.5355648104587603e+17,2.5682683271402153e+18
16918.927393268394,3.2597381429106056e+16,3.4646255962900234e+18,70207632269113.58,99492245343559.5,544303392238302.6,2.5012402921126656e+16,5.6905302099726464e+17,2.8372487876726764e+18
18611.820132595236,3.276265928027969e+16,3.775684111855115e+18,70563604251038.53,100268814336768.08,548552125038990.25,2.5624619223628708e+16,5.829202540388957e+17,3.1336571947686917e+18
20474.00214585476,3.291807837378931e+16,4.1150106936285097e+18,70898342642578.27,100932381195115.64,552182557742503.6,2.6163012938905028e+16,5.951090338848177e+17,3.4600965551494124e+18
22522.40236044024,3.3062319662368012e+16,4.4854498056343393e+18,71209006508221.47,101499677356185.86,555286239442330.75,2.6627677833909316e+16,6.056227710577934e+17,3.819409042156965e+18
24775.642596484264,3.3194390995115588e+16,4.890169604344235e+18,71493458975046.88,101985103909269.42,557941971603970.75,2.702096435998971e+16,6.145160370812937e+17,4.214706791373345e+18
27254.206856132692,3.3313672520299564e+16,5.332692041142255e+18,71750365020255.95,102400649518761.48,560215357352694.7,2.7347249536447696e+16,6.218892671599444e+17,4.649407485553678e+18
29980.627541745966,3.341993567394456e+16,5.816923818388856e+18,71979232368341.05,102756100270829.88,562159948210182.7,2.7612553884925424e+16,6.278800091532462e+17,5.127274424395882e+18
32979.69029592056,3.3513333313941052e+16,6.347188628142873e+18,72180390242091.47,103059428265856.66,563819369226184.4,2.782404696756942e+16,6.326516672801208e+17,5.652460521393516e+18
36278.65932551262,3.3594362376717956e+16,6.928261368835575e+18,72354908933295.67,103317240211006.4,565229772871543.6,2.7989499484623172e+16,6.363810574786857e+17,6.229555547573522e+18
39907.525258063884,3.366380407289512e+16,7.565405249999073e+18,72504470997383.95,103535188301314.72,566422087035445.9,2.8116746485571852e+16,6.392462369021596e+17,6.863636000792107e+18
43899.277783870275,3.3722649610367536e+16,8.264412815139956e+18,72631211277381.75,103718283739144.38,567423730646529.4,2.821322147134308e+16,6.414159600506249e+17,7.560317210781965e+18
48290.20556225731,3.377202046280165e+16,9.031651933277669e+18,72737545179887.78,103871092921852.42,568259687508851.2,2.828560544000977e+16,6.430417533323068e+17,8.325807685716936e+18
53120.22611848305,3.381309219739517e+16,9.87411772379433e+18,72826004616930.1,103997829816029.48,568953012188002.6,2.83396129318928e+16,6.44253102890922e+17,9.166966138927491e+18
58433.24873033136,3.3847028892836764e+16,1.079949123390443e+19,72899096756769.22,104102375763258.9,569524938805682.6,2.837991319082132e+16,6.451557068014989e+17,1.0091362058607931e+19
64277.57360336451,3.387493257710471e+16,1.181620552374428e+19,72959195124113.12,104188262266993.44,569994787198008.5,2.8410164725172864e+16,6.458322948509837e+17,1.1107340989346415e+19
70706.33096370097,3.389780920832647e+16,1.2933519680217768e+19,73008466330424.06,104258646061933.08,570379826743460.6,2.843312930470111e+16,6.46345242989851e+17,1.2224095851775775e+19
77777.96406007107,3.3916550224061544e+16,1.416160121115768e+19,73048830335161.39,104316294818677.11,570695155992696.4,2.8450828158376944e+16,6.467401370061307e+17,1.3451745635487949e+19
85556.76046607818,3.393192697940889e+16,1.551161727942676e+19,73081948466701.81,104363588525820.02,570953879441973.0,2.846470761792852e+16,6.47049542880397e+17,1.4801422702532588e+19
94113.436512686,3.3944594605037212e+16,1.6995835314551112e+19,73109231731687.34,104402549864347.75,571167020077324.8,2.8475790742801e+16,6.472964528526349e+17,1.628536979754899e+19
103525.78016395462,3.3955101815327468e+16,1.862773366706802e+19,73131861939597.36,104434866494478.08,571343810363012.9,2.848480211803625e+16,6.474971182928567e+17,1.7917047734303027e+19
113879.3581803501,3.3963903733139052e+16,2.0422123121814843e+19,73150819324461.38,104461938220491.47,571491908026589.1,2.849226223788932e+16,6.476631896116768e+17,1.971125466156659e+19
125268.29399838512,3.3971375570411724e+16,2.239528024110184e+19,73166912009852.39,104484919067648.36,571617626243766.8,2.8498554135456596e+16,6.478032248989169e+17,2.16842578170397e+19
137796.12339822366,3.39778257824934e+16,2.456509365506435e+19,73180804340399.95,104504757740460.33,571726154968347.6,2.8503967980297532e+16,6.479236980673777e+17,2.38539387515171e+19
151576.73573804603,3.398350795477142e+16,2.6951224552032006e+19,73193042482967.16,104522234181957.16,571821760932306.9,2.8508729929383496e+16,6.480296497053229e+17,2.623995312740499e+19
166735.40931185064,3.3988631170580384e+16,2.9575282737995964e+19,73204076756832.89,104537991461874.42,571907962092416.8,2.851301906384808e+16,6.481250678846333e+17,2.886390636984654e+19
183409.95024303574,3.3993368618405156e+16,3.2461019838020022e+19,73214280171703.77,104552562249502.03,571987672451890.2,2.851698518655603e+16,6.48213289057237e+17,3.1749546440642937e+19
201751.94526733932,3.3997865132682172e+16,3.563454114340415e+19,73223964668933.25,104566392006646.38,572063328939084.5,2.852074955750492e+16,6.482970120334821e+17,3.492297566299483e+19
221928.13979407327,3.4002243129113276e+16,3.912453803207546e+19,73233393904876.42,104579857242650.8,572136991272922.5,2.8524414666107668e+16,6.483785176490202e+17,3.841288290638874e+19
244121.9537734806,3.4006607630739124e+16,4.296254281924964e+19,73242794075940.31,104593280972901.27,572210426529719.4,2.8528068439290816e+16,6.484597624473979e+17,4.225079833423062e+19
268535.1491508287,3.4011050403988932e+16,4.71832081507586e+19,73252362826720.34,104606945439919.64,572285178734792.9,2.8531787704403132e+16,6.485424557695914e+17,4.64713727123937e+19
295389.6640659116,3.40156533740919e+16,5.1824613213979664e+19,73262276606042.8,104621102618014.4,572362626328889.8,2.853564104874789e+16,6.486281234062764e+17,5.1112683550145044e+19
324929.6304725028,3.402049145849773e+16,5.6928599228031844e+19,73272696769524.75,104635982927926.81,572444029842225.1,2.8539691191822356e+16,6.487181603977887e+17,5.621657053227412e+19
357423.5935197531,3.4025634933433052e+16,6.254113687368144e+19,73283774676614.38,104651802515557.52,572530571713235.9,2.8543996966660536e+16,6.488138751281775e+17,6.182900290050434e+19
