t(s),Total solute volume 1,Total retention volume 1,Total 1 volume 1,Total 2 volume 1,Total 3 volume 1,Total 4 volume 1,Total 5 volume 1,Total 6 volume 1
1.0,1802230404083058.8,1802576492555096.8,346088472037.3903,0.0,0.0,0.0,0.0,0.0
2.1,2688617106385118.5,2831286909859246.0,516304342614.24536,184161534369.1971,533323156572.0239,4908848828507.556,60918038172847.73,75609127439212.86
3.3100000000000005,3339837429293538.0,3711256607877712.0,641360409024.1967,480189804758.2484,1390626780160.3455,12802110403514.145,158870012580335.53,197234878606382.03
4.641000000000001,3869267135614026.5,4546967649108438.0,743028606833.9736,876401767086.7822,2538093687560.7925,23370530988864.75,290016483880179.6,360155974563897.2
6.105100000000002,4319391358616008.5,5379641325493336.0,829467501473.357,1370997798514.8938,3970530949768.296,36568609582478.37,453790879483911.7,563719481561187.0
7.7156100000000025,4711483633598748.0,6232261905841445.0,904762322671.5027,1966006154140.3215,5693834820802.633,52453384906188.57,650898710878198.2,808861573160704.6
9.487171000000004,5058029130622248.0,7120691890005453.0,971310640326.2543,2665575701104.61,7720047751468.616,71139084142833.17,882754651743404.2,1097412089404073.8
11.435888100000005,5367157530288348.0,8057615418595061.0,1030673624799.7533,3475330527781.915,10065490605711.72,92780084724819.55,1151270965344912.0,1431835343478670.5
13.579476910000007,5644576791441155.0,9054270843399930.0,1083947394943.0352,4402097092200.034,12749973917231.334,117563831074713.22,1458769449581348.0,1815124752898339.8
15.937424601000009,5894534327134854.0,1.0121336760671066e+16,1131947596004.4507,5453792737637.68,15796476716714.436,145708087544555.84,1807947164815658.5,2250764964125626.8
18.53116706110001,6120340469268697.0,1.1269444698746102e+16,1175309922334.0342,6639394939644.203,19231059479708.516,177460387364093.97,2201869378092578.2,2742728699679050.5
21.384283767210015,6324673422711886.0,1.250951068975542e+16,1214548678767.395,7968955661324.267,23082908103996.03,213098737909078.6,2643978054397759.0,3295494062292603.5
24.522712143931017,6509766408088709.0,1.3852973560150948e+16,1250092718294.9639,9453643406955.316,27384458579788.066,252933129495024.03,3138110266434744.5,3914075561427418.0
27.97498335832412,6677527440280571.0,1.5311983990384202e+16,1282308443537.5005,11105803828861.195,32171575964050.12,297307617130527.75,3688523650430084.0,4604065594306550.0
31.772481694156536,6829618760806438.0,1.6899568203945034e+16,1311515060417.68,12939033784900.553,37483772993437.12,346602854805280.2,4299927400195755.5,5371684866298806.0
35.949729863572195,6967511164141823.0,1.862978008553602e+16,1337995010628.8435,14968265778782.246,43364459582665.1,401239018989836.06,4977517997811875.0,6223841184220420.0
40.544702849929415,7092522174069921.0,2.051785018345336e+16,1362001302770.0276,17209860703102.162,49861217338125.56,461679087724390.7,5727019244912949.0,7168196597402108.0
45.59917313492236,7205843516747576.0,2.2580337064069052e+16,1383762788092.5913,19681707209659.355,57026094414476.11,528432456394447.1,6554726337746478.0,8213243188768338.0
51.1590904484146,7308561308751395.0,2.4835284756874212e+16,1403488037279.515,22403326098727.7,64915916265872.85,602058877634391.1,7467553803757071.0,9368388036329448.0
57.27499949325607,7401671174050306.0,2.7302389010001844e+16,1421368243409.1545,25395977984327.54,73592607486839.42,683172714446677.1,8473087133030695.0,1.0644048034759556e+16
64.00249944258168,7486089771145293.0,3.000317447841301e+16,1437579435551.1763,28682772229229.586,83123519212067.45,772447494582619.9,9579637919326922.0,1.2051755422481332e+16
71.40274938683986,7562663753476333.0,3.2961184625797628e+16,1452284199463.964,32288774785463.785,93581755548158.47,870620751458759.0,1.0796302284420506e+16,1.3604275021908988e+16
79.54302432552385,7632176889737011.0,3.620218593806455e+16,1465633044932.9524,36241112132965.67,105046491270301.19,978499132663986.1,1.2133022299485316e+16,1.5315734379730078e+16
88.49732675807624,7695355870745880.0,3.975438795893434e+16,1477765520883.8662,40569067975547.73,117603271517497.33,1096963751311101.2,1.3600650036485604e+16,1.7201768195377778e+16
98.34705943388387,7752875188448632.0,4.36486806262117e+16,1488811152314.1914,45304168717279.32,131344282423817.72,1226975747722423.0,1.5211013776193096e+16,1.927967865155417e+16
109.18176537727226,7805361369037700.0,4.791889038403536e+16,1498890253193.5776,50480252989077.984,146368579486081.6,1369582018704327.8,1.6976985761146758e+16,2.1568613512418136e+16
121.09994191499949,7853396763885405.0,5.260205655382672e+16,1508114654449.6804,56133519611859.41,162782257949184.44,1525921058389964.8,1.8912550704511384e+16,2.4089764134824504e+16
134.20993610649944,7897523041956450.0,5.773872945255718e+16,1516588374628.0813,62302547360048.39,180698546558577.53,1697228837712172.2,2.1032874041949644e+16,2.6866585848645604e+16
148.6309297171494,7938244481308972.0,6.33732917427075e+16,1524408251970.4932,69028278724920.68,200237802670766.03,1884844628386606.0,2.335436863570661e+16,2.9925043507657748e+16
164.49402268886433,7976031122341482.0,6.955430447759624e+16,1531664549943.5552,76353958576913.19,221527382935116.78,2090216651192756.2,2.589475830035791e+16,3.329388539764206e+16
181.94342495775078,8011321819439005.0,7.633487926360184e+16,1538441543256.9268,84325017206551.12,244701359601149.34,2314907396664536.0,2.867313611021915e+16,3.700494911892823e+16
201.13776745352587,8044527208835299.0,8.377307789313702e+16,1544818087791.9902,92988885716371.11,269900048040765.44,2560598428346885.5,3.1710014961330716e+16,4.10935035427792e+16
222.25154419887846,8076032597293391.0,9.193234070559568e+16,1550868175325.1104,102394730191407.38,297269306431673.9,2829094433833742.5,3.5027367288554268e+16,4.5598631481116e+16
245.47669861876633,8106200767259286.0,1.0088194480528158e+17,1556661472210.8655,112593089568007.84,326959563919368.75,3122326236192290.5,3.864865017370301e+16,5.056365831316716e+16
271.024368480643,8135374688285047.0,1.1069749310397746e+17,1562263840065.9475,123635400755251.31,359124529238111.3,3442352417486884.5,4.259881131837779e+16,5.6036632485994344e+16
299.1268053287073,8163880120748546.0,1.2146143496154984e+17,1567737835770.3545,135573393483508.08,393919528109868.2,3791359136488444.5,4.690427049257764e+16,6.2070864552306104e+16
330.03948586157804,8192028095390147.0,1.3326361897352723e+17,1573143187621.319,148458336750154.94,431499415266819.75,4171657644103529.5,5.159287010882676e+16,6.872553223000227e+16
364.0434344477359,8220117250274360.0,1.4620187820648832e+17,1578537244108.0671,162340118846302.7,472016006324313.2,4585678912825317.0,5.669378751963948e+16,7.60663598613344e+16
401.44777789250946,8248436004943286.0,1.6038264792205456e+17,1583975391421.9158,177266144083971.6,515614976807891.1,5035964701483506.0,6.223740051121579e+16,8.416638160812838e+16
442.5925556817604,8277264549361215.0,1.7592161557715574e+17,1589511435400.154,193280031867632.47,562432181442121.9,5525154275563780.0,6.8255096299023336e+16,9.3106798728462e+16
487.8518112499365,8306876622467955.0,1.9294440267018592e+17,1595197943067.6895,210420108096630.12,612589357564334.6,6055965899482983.0,7.477901316990989e+16,1.0297794231472093e+17
537.6369923749302,8337541051566501.0,2.1158727785980538e+17,1601086538250.9446,228717685526981.25,666189193631388.4,6631172115285653.0,8.184170283265758e+16,1.138803538945993e+17
592.4006916124232,8369523019266346.0,2.319979007704107e+17,1607228144873.3347,248195139172720.53,723309768762445.8,7253567729413196.0,8.94757006367719e+16,1.2592599724887973e+17
652.6407607736655,8403085019271064.0,2.5433609608853926e+17,1613673170498.3887,268863795587378.5,783998403649217.4,7925929355585342.0,9.771299023815968e+16,1.3923961560311592e+17
718.9048368510321,8438487456026295.0,2.787746580412796e+17,1620471621482.235,290721671359120.7,848265008371518.1,8650965321218634.0,1.0658434921689006e+17,1.539602488957928e+17
791.7953205361354,8475988836349136.0,3.055001862478172e+17,1627673139772.8364,313751116633859.4,916075069700483.5,9431254755482876.0,1.1611856282770635e+17,1.7024292596880502e+17
871.9748525897489,8515845494017393.0,3.347139553890924e+17,1635326950021.9211,337916443909836.1,987342489649286.9,1.0269174762618326e+16,1.2634149479113171e+17,1.8826054608081587e+17
960.1723378487239,8558310781507717.0,3.666328233113393e+17,1643481704371.7,363161650228270.6,1061922567461575.1,1.1166814773937868e+16,1.3727500717965822e+17,2.0820596287684115e+17
1057.1895716335964,8603633657510857.0,4.014901852471855e+17,1652185211210.5784,389408371072872.25,1139605506307183.2,1.2125877501564948e+16,1.489357264497847e+17,2.3029428157573398e+17
1163.9085287969563,8652056595764109.0,4.395369859895417e+17,1661484033599.0918,416554234784646.2,1220110918734752.5,1.3147566427596318e+16,1.6133365999558224e+17,2.5476537633304547e+17
1281.299381676652,8703812741813865.0,4.810428072623894e+17,1671422943273.3206,444471814045042.9,1303083893494720.0,1.4232460499243186e+16,1.744706777509894e+17,2.818866291398596e+17
1410.4293198443174,8759122251774517.0,5.262970543308859e+17,1682044217564.229,473008391743308.94,1388093259307361.0,1.538037770940546e+16,1.8833888680933168e+17,3.119558838651063e+17
1552.4722518287492,8818187763773273.0,5.756102741288072e+17,1693386769763.7175,501986766900605.2,1474632723453820.8,1.6590230563522036e+16,2.029189441013197e+17,3.4530459882306874e+17
1708.7194770116243,8881188981919158.0,6.293156467623304e+17,1705485109065.6787,531207315888827.56,1562125556357859.8,1.7859878093087082e+16,2.1817837296967894e+17,3.8230116836028934e+17
1880.5914247127869,8948276398079295.0,6.87770702872286e+17,1718368134937.2578,560451488160599.2,1649933417187661.0,1.9185981071146244e+16,2.3406997366733325e+17,4.233543684622447e+17
2069.6505671840655,9019564242351758.0,7.513593304062301e+17,1732057783374.0027,589486847873698.2,1737369749908699.8,2.0563869365727756e+16,2.5053044440561654e+17,4.6891686373696794e+17
2277.615623902472,9095122842223692.0,8.204941448931039e+17,1746567559602.9414,618073668960940.5,1823717908392585.0,2.1987432814112012e+16,2.6747935669944816e+17,5.19488694392407e+17
2506.3771862927197,9174970684821288.0,8.956193059021668e+17,1761901013769.294,645972951128260.0,1908253786973278.8,2.344904939955669e+16,2.8481865333605053e+17,5.756206438426228e+17
2758.0149049219917,9259066615265528.0,9.772138670934103e+17,1778050242760.0503,672955553828388.2,1990272249094112.2,2.4939566529366244e+16,3.0243285489910483e+17,6.379173731965075e+17
3034.816395414191,9347302761043708.0,1.0657957457656193e+18,1794994531446.9143,698811958402426.6,2069116093711277.2,2.644835238337343e+16,3.201901655712403e+17,7.070402020033148e+17
3339.2980349556105,9439498934735476.0,1.1619263874121357e+18,1812699277822.632,723361988433096.4,2144205736342415.8,2.7963434034920412e+16,3.3794465394833734e+17,7.837094200700887e+17
3674.227838451172,9535399413924954.0,1.2662161788284306e+18,1831115374636.55,746463676564683.6,2215067296005421.2,2.9471736673183736e+16,3.555396425016735e+17,8.687060381517006e+17
4042.6506222962894,9634673096643312.0,1.3793306275795666e+18,1850179239244.847,768020399475089.8,2281356478428603.5,3.0959433127301656e+16,3.728123638371835e+17,9.628729304612922e+17
4447.915684525919,9736918043798052.0,1.5019972750602765e+18,1869813685908.755,787985446852788.9,2342875641949871.0,3.241240454489632e+16,3.895998298961135e+17,1.0671153916729788e+18
4893.707252978511,9841671303509764.0,1.6350132457899684e+18,1889929812395.5647,806363369783909.6,2399581816032906.0,3.3816801455761044e+16,4.057457143860474e+17,1.182401223529021e+18
5384.077978276362,9948424627861086.0,1.779253260419462e+18,1910430018119.6985,823207771750132.2,2451584249786175.0,3.5159680165866836e+16,4.211078801656758e+17,1.3097605730084977e+18
5923.485776103998,1.0056646220086686e+16,1.935677860675593e+18,1931212180329.9207,838615633344518.2,2499131250471824.5,3.642967396704653e+16,4.3556601342348326e+17,1.450285848968974e+18
6516.834353714399,1.0165808002885114e+16,2.105341520519066e+18,1952174890536.4841,852718737462574.8,2542587477924884.5,3.761764445164832e+16,4.49028686558743e+17,1.6051321231155098e+18
7169.5177890858395,1.0275417136063592e+16,2.2894002603852654e+18,1973223506952.1287,865673195261872.9,2582404244107477.5,3.8717248476944344e+16,4.6143909905946976e+17,1.7755184450499126e+18
7887.469567994424,1.0385049745027616e+16,2.4891183515726986e+18,1994276631489.2422,877648365722182.9,2619086431452676.0,3.972535441650209e+16,4.7277877605314176e+17,1.9627304422842235e+18
8677.216524793868,1.0494384202142824e+16,2.705873703601358e+18,2015272500893.4026,888816532766206.6,2653160118344880.0,4.064224995668083e+16,4.830686605774612e+17,2.1681244169414607e+18
9545.938177273256,1.0603230993419822e+16,2.941161570391292e+18,2036174722144.8892,899344520261086.1,2685144728000166.5,4.147160379042173e+16,4.9236731680691584e+17,2.3931328933775483e+18
10501.531995000581,1.0711556332721358e+16,3.1965962844069965e+18,2056976807175.5369,909388018808436.9,2715532523929678.0,4.222017345210347e+16,5.0076633449689984e+17,2.639271242605725e+18
11552.68519450064,1.081949730305036e+16,3.473910815155344e+18,2077705080501.897,919088864221525.6,2744776785568865.0,4.289728665960791e+16,5.08383425797001e+17,2.908144662040798e+18
12708.953713950705,1.0927367343636334e+16,3.7749540260659845e+18,2098419732929.1106,928574978526197.4,2773288379716377.5,4.351415707473585e+16,5.153540512436409e+17,3.201454488626004e+18
13980.849085345777,1.1035652181715748e+16,4.101685545929808e+18,2119214040316.7322,937962288067926.9,2801439095203349.0,4.408311990137973e+16,5.218226213920043e+17,3.5210026318573967e+18
15379.933993880357,1.1144997571762158e+16,4.4561681561592074e+18,2140212009101.0828,947357751031303.6,2829569327016866.0,4.461688223845486e+16,5.279343405267382e+17,3.8686928685321917e+18
16918.927393268394,1.1256191187570164e+16,4.840557512462802e+18,2161564898970.163,956862668732341.9,2857997585586941.0,4.512787506215587e+16,5.338285816915897e+17,4.246527842702268e+18
18611.820132595236,1.1370141517725754e+16,5.257088873313362e+18,2183447170088.6414,966575664828068.9,2887029761344298.0,4.562777004786241e+16,5.396343516049465e+17,4.656600821269491e+18
20474.00214585476,1.1487856569887522e+16,5.708060316877872e+18,2206052393608.0786,976594999200698.2,2916966843126303.5,4.612719109087141e+16,5.4546800263475046e+17,5.101081498687636e+18
22522.40236044024,1.1610424658216542e+16,6.195811722196639e+18,2229589562211.3223,987020144332707.6,2948110585379493.5,4.663561550986772e+16,5.514329730724756e+17,5.582195348636819e+18
24775.642596484264,1.1738998700972424e+16,6.722698601468421e+18,2254280074726.095,997952728872184.8,2980767224718932.5,4.716143139570596e+16,5.5762106653002125e+17,6.102196130608068e+18
27254.206856132692,1.1874784505440538e+16,7.291059725539341e+18,2280355486439.3384,1009497027109166.1,3015249664635119.5,4.771210069245037e+16,5.64114657998136e+17,6.663331155296072e+18
29980.627541745966,1.2019032656003686e+16,7.903177401392722e+18,2308055951335.72,1021760162083350.0,3051878598169382.0,4.829437381391495e+16,5.709892338480495e+17,7.267798814258549e+18
32979.69029592056,1.2173032968757978e+16,8.561229245309057e+18,2337629157198.372,1034852129794381.9,3090982912400493.0,4.891450866486347e+16,5.783157949802871e+17,7.917697736023796e+18
36278.65932551262,1.2338110066045608e+16,9.267230348200976e+18,2369329475770.994,1048885677453862.2,3132899519220331.0,4.9578460272651064e+16,5.861628185288736e+17,8.614966804807246e+18
39907.525258063884,1.2515618417142318e+16,1.0022964849420466e+19,2403417010403.83,1063976002751005.5,3177972561046262.0,5.029202180004704e+16,5.945976303899405e+17,9.361315226832527e+18
43899.277783870275,1.2706935107272938e+16,1.0829906126412972e+19,2440156207462.767,1080240192239633.6,3226551784290117.5,5.106090960808386e+16,6.036871537354254e+17,1.015814189582946e+19
48290.20556225731,1.291344855171464e+16,1.1689125083851657e+19,2479813689059.608,1097796283481428.5,3278989760993583.0,5.1890792336870536e+16,6.134980562871604e+17,1.1006443520817752e+19
53120.22611848305,1.3136541303143934e+16,1.2601186412450736e+19,2522654951487.892,1116761811570418.0,3335637556923466.5,5.278726663341045e+16,6.24096328761106e+17,1.1906711353729659e+19
58433.24873033136,1.3377564983452984e+16,1.3566033220668502e+19,2568939551293.5684,1137251680801373.0,3396838377985163.0,5.375578137374605e+16,6.355463054079203e+17,1.285881690990507e+19
64277.57360336451,1.3637805221135078e+16,1.4582861168238248e+19,2618914372081.1626,1159375185019567.2,3462918671960000.5,5.480150963315152e+16,6.4790910302619e+17,1.3861887837586436e+19
70706.33096370097,1.3918434346484144e+16,1.5649984204626336e+19,2672804540411.13,1183231986161564.2,3534176116794353.0,5.592916473966788e+16,6.612404216941592e+17,1.4914176102938507e+19
77777.96406007107,1.4220449582931668e+16,1.676469530257471e+19,2730801556471.226,1208906860000130.5,3610863927138400.0,5.7142754620347624e+16,6.755876288797592e+17,1.601292196790297e+19
85556.76046607818,1.4544594709940058e+16,1.7923127247450894e+19,2793048250734.713,1236463036561941.8,3693170962961918.5,5.844526812856853e+16,6.909860460668269e+17,1.7154218911497814e+19
94113.436512686,1.4891263843547828e+16,1.9120120665648767e+19,2859620306610.6772,1265934020334222.8,3781197297486549.0,5.983828882665964e+16,7.074543809270884e+17,1.833288674111332e+19
103525.78016395462,1.526038731263277e+16,2.0349109096034353e+19,2930504344874.393,1297313888395924.8,3874925238869154.0,6.132153655090609e+16,7.24989307222166e+17,1.9542362695317045e+19
113879.3581803501,1.5651301856733418e+16,2.1602034011866055e+19,3005572997313.959,1330546255696500.2,3974186370826696.5,6.289234589348859e+16,7.435592995955327e+17,2.077462332632079e+19
125268.29399838512,1.6062610766760654e+16,2.286930614180079e+19,3084558049076.6387,1365512385362242.8,4078626039576732.5,6.454510421936026e+16,7.630979906235272e+17,2.202015321320816e+19
137796.12339822366,1.6492044242900936e+16,2.413983284538364e+19,3167023622724.35,1402019317467760.0,4187667895950640.0,6.627069057300962e+16,7.834975386536869e+17,2.326797971767696e+19
151576.73573804603,1.6936335988938566e+16,2.540113395166306e+19,3252342480225.022,1439789378096683.8,4300482560286500.0,6.8055979822117336e+16,8.046027672969157e+17,2.450579534427419e+19
166735.40931185064,1.739113825010466e+16,2.6639569203813855e+19,3339679707386.3696,1478452956558627.2,4415966048932648.0,6.988350128334531e+16,8.262071314891718e+17,2.5720189674105946e+19
183409.95024303574,1.785100280497288e+16,2.784069764975307e+19,3427989063670.4614,1517546889481911.5,4532734947830319.0,7.173136237297275e+16,8.480518167884056e+17,2.6897009757960385e+19
201751.94526733932,1.8309457752996596e+16,2.898978111392377e+19,3516027727971.386,1556520988670196.0,4649145910542903.0,7.357355719014731e+16,8.698293891701888e+17,2.8021859526883488e+19
221928.13979407327,1.8759206665534052e+16,3.0072428698557665e+19,3602394542269.156,1594754971303253.0,4763346226822009.0,7.538076678399938e+16,8.911932569482765e+17,2.9080733764567187e+19
244121.9537734806,1.919246529648489e+16,3.107535668844334e+19,3685594671321.7524,1631587084330984.8,4873359320286070.0,7.712171216026371e+16,9.117736661949075e+17,3.006076021279234e+19
268535.1491508287,1.960143042322929e+16,3.1987210118540743e+19,3764129635785.8555,1666353961503829.0,4977203796576842.0,7.876503820513691e+16,9.311999713280305e+17,3.0950996356696658e+19
295389.6640659116,1.997884713493091e+16,3.2799363514533016e+19,3836606250516.104,1698438849590166.2,5073037489202754.0,8.028159317614474e+16,9.491275806234898e+17,3.1743200180653384e+19
324929.6304725028,2.0318610416567496e+16,3.350659675388115e+19,3901852148786.146,1727322750132433.2,5159310213680197.0,8.164684598301755e+16,9.6526652942261e+17,3.243247423324302e+19
357423.5935197531,2.061631302828708e+16,3.410753668254686e+19,3959020993415.925,1752630995667199.2,5234902884923150.0,8.28430876562688e+16,9.794075013361496e+17,3.301767828762458e+19
