t(s),Total solute volume 1,Total retention volume 1,Total 1 volume 1,Total 2 volume 1,Total 3 volume 1,Total 4 volume 1,Total 5 volume 1,Total 6 volume 1
1.0,2672264339004783.0,2676635531502327.0,4371192497536.0103,0.0,0.0,0.0,0.0,0.0
2.1,4093567756780280.5,4122971129034076.5,6696108431216.137,3258004835.871301,16578522527.643005,354951564866.78815,7641843231299.683,14690632499052.39
3.3100000000000005,5226195075588106.0,5295534419413154.0,8548818610852.347,8732887186.245798,44437717442.96401,951516574756.6978,20481558559306.637,39304279475500.94
4.641000000000001,6227727421760921.0,6352003104445959.0,10187088464804.55,16398497863.783005,83444526652.64474,1786950811587.0056,38460558515704.38,73741241868432.28
6.105100000000002,7156306940839825.0,7351740710605149.0,11706024773990.086,26413741114.144924,134407544690.16975,2878695908826.542,61954612134611.44,118733615662109.16
7.7156100000000025,8040521727194555.0,8325139251852111.0,13152390890554.24,39028118998.10474,198596376731.07922,4254101447183.6724,91552593210493.77,175420814613585.6
9.487171000000004,8896723156246466.0,9290804268119984.0,14552933792646.805,54558109590.56263,277621438640.3117,5947864752877.679,128001486461241.69,245246647318506.4
11.435888100000005,9735152601267506.0,1.0261650267038468e+16,15924405941998.875,73380840496.52626,373401764748.03534,8001357011982.917,172191936734667.06,329933183477060.44
13.579476910000007,1.0562593774189294e+16,1.1247558894581344e+16,17277903885231.037,95933951347.75714,488164308415.92914,10462626975548.162,225158355517843.22,431482135753678.7
15.937424601000009,1.1383682888117756e+16,1.225671218033326e+16,18621011369327.562,122718278588.01404,624457603838.1399,13386716474947.684,288085713291353.8,552188675197477.5
18.53116706110001,1.2201619253800212e+16,1.32963354734612e+16,19958961708997.164,154302086084.62155,785173293654.5002,16836149708742.543,362320030026114.0,694661602837381.9
21.384283767210015,1.3018578624425826e+16,1.4373148335375626e+16,21295313920632.47,191326272165.32156,973572624802.4424,20881535428203.812,449381224960701.7,861846737743341.2
24.522712143931017,1.3835966805547204e+16,1.549365843388653e+16,22632367567782.83,234510252364.13745,1193316382226.5183,25602250647782.867,550977617536142.6,1057051565953011.2
27.97498335832412,1.4654581040960738e+16,1.6664364297047156e+16,23971426749928.777,284658310452.60956,1448497204827.264,31087184997171.375,669021604193057.1,1283969884630972.0
31.772481694156536,1.5474713853812662e+16,1.7891900489327806e+16,25312969961704.605,342666212912.28436,1743673241259.8987,37435525534436.49,805646069462704.5,1546705731102110.5
35.949729863572195,1.6296217680781204e+16,1.9183142754774304e+16,26656755819016.332,409527829269.4392,2083901834995.2554,44757556585698.5,963221002903873.4,1849796329020256.0
40.544702849929415,1.7118540682777532e+16,2.0545282804329336e+16,28001881636965.62,486341419986.04114,2474771517424.7144,53175440902623.625,1144369642421666.8,2198234043653133.8
45.59917313492236,1.7940740983909004e+16,2.198587918618879e+16,29346806721726.32,574315176710.4988,2922430196652.2954,62823940564602.35,1351983316321171.5,2597487393298907.0
51.1590904484146,1.8761486290915004e+16,2.351289023488127e+16,30689351748522.387,674771561890.6335,3433607237327.6694,73851032419400.98,1589234088574483.8,3053521092424644.5
57.27499949325607,1.9579046880575944e+16,2.513469617083139e+16,32026687291308.105,789150026502.3232,4015627288435.801,86418376782526.44,1859584394115719.0,3572815054750925.0
64.00249944258168,2.039129104204351e+16,2.686011893849619e+16,33355326368169.582,919007801873.8257,4676414312403.22,100701611376119.53,2166793122842519.8,4162382413751597.5
71.40274938683986,2.1195692256699628e+16,2.8698449437616636e+16,34671136186514.67,1066018659341.8386,5424485275055.974,116890464608895.52,2514918065282895.5,4829787010904337.0
79.54302432552385,2.198935617188721e+16,3.0659491829739276e+16,35969382266248.59,1231969783956.4915,6268934240585.374,135188710547813.28,2908315214716328.5,5583161446297174.0
88.49732675807624,2.276907277075084e+16,3.275363338842966e+16,37244813777664.73,1418757175324.272,7219408973521.953,155814017998305.1,3351636040881894.5,6431227578872083.0
98.34705943388387,2.3531395489096564e+16,3.4991946078302864e+16,38491792958091.836,1628380225157.213,8286083352921.631,178997773190147.22,3849824408838511.0,7383322150641514.0
109.18176537727226,2.4272745063935136e+16,3.738632313171301e+16,39704464983526.97,1862936288117.3188,9479629753753.87,204984975467827.06,4408115224771998.5,8449430836512623.0
121.09994191499949,2.4989532330065896e+16,3.994965088274492e+16,40876958834593.945,2124616133904.4521,10811195913520.71,234034315301691.03,5032037089305403.0,9640234377189908.0
134.20993610649944,2.5678291570282636e+16,4.269601350451921e+16,42003605425578.18,2415701133571.0474,12292390624176.36,266418542741950.7,5727421204537991.0,1.0967170489773302e+16
148.6309297171494,2.6335814676471324e+16,4.5640926409176184e+16,43079157059772.39,2738562895233.5415,13935281888149.158,302425222529723.94,6500418522596051.0,1.244251498573589e+16
164.49402268886433,2.695927633113565e+16,4.8801593045969816e+16,44098992196298.125,3095665837459.6626,15752410022761.598,342357950959462.7,7357526673502240.0,1.4079485022315912e+16
181.94342495775078,2.7546341497732504e+16,5.219717963217317e+16,45059291278305.22,3489572892386.153,17756816690076.504,386538081383957.5,8305627614416198.0,1.5892366757779654e+16
201.13776745352587,2.8095248413249004e+16,5.584910281633027e+16,45957172488651.78,3922954187437.908,19962089083007.867,435306972349542.94,9352036251457252.0,1.7896668963515386e+16
222.25154419887846,2.8604862664979308e+16,5.9781326195139704e+16,46790780206237.86,4398598187519.086,22382416631181.01,489028737170730.3,1.050455955025193e+16,2.010930344771284e+16
245.47669861876633,2.9074700482260412e+16,6.402066278038551e+16,47559323105376.305,4919424411870.759,25032655719252.082,548093438676618.94,1.177156492110619e+16,2.254879253510576e+16
271.024368480643,2.9504921813184012e+16,6.859708177612623e+16,48263062830638.76,5488496494031.146,27928396151140.93,612920640146663.6,1.3162055985260386e+16,2.523550338205944e+16
299.1268053287073,2.9896295880983116e+16,7.354401926338322e+16,48903257655070.945,6109034050430.722,31086021552426.81,683963195117459.4,1.4685753240623726e+16,2.8191908633400896e+16
330.03948586157804,3.0250143583314824e+16,7.889869352726282e+16,49482068258970.15,6784421580502.203,34522754668501.445,761711136341594.0,1.6353176679675976e+16,3.1442872883422456e+16
364.0434344477359,3.056826222703685e+16,8.470242675618366e+16,50002434613810.65,7518212450384.75,38256677646984.99,846695508545176.8,1.8175727085053812e+16,3.501596461083677e+16
401.44777789250946,3.0852838652799836e+16,9.100097566661037e+16,50467933874731.53,8314125917424.299,42306716910101.02,939491980649266.4,2.016576253667792e+16,3.8941793719781016e+16
442.5925556817604,3.11063568205662e+16,9.784487423899446e+16,50882629212471.266,9176035129917.387,46692582106830.46,1040724069653579.1,2.233666658423399e+16,4.325437551809153e+16
487.8518112499365,3.133150546790359e+16,1.0528979217650938e+17,51250918764384.49,10107944075789.87,51434648834212.39,1151065808379475.0,2.470290452792271e+16,4.799152286062889e+16
537.6369923749302,3.1531090623434e+16,1.1339691291020653e+17,51577392527360.03,11113951542009.82,56553775265298.766,1271243690072013.8,2.728006425362413e+16,5.31952692237417e+16
592.4006916124232,3.170795668693894e+16,1.2223333497575789e+17,51866703263763.24,12198200271786.984,62071043458363.79,1402037721614798.5,3.008487802702701e+16,5.89123265931829e+16
652.6407607736655,3.1864918610149276e+16,1.3187250039414198e+17,52123455565458.02,13364809663279.74,68007416918883.55,1544281411216616.0,3.3135221511110684e+16,6.519458317951783e+16
718.9048368510321,3.2004706552178516e+16,1.4239465333051669e+17,52352115323372.02,14617790545704.469,74383306963325.06,1698860503922682.0,3.645008599205114e+16,7.20996470695321e+16
791.7953205361354,3.2129923340640948e+16,1.538873318216595e+17,52556940144102.82,15960940812718.318,81218041674846.0,1866710258124144.5,4.004951935833083e+16,7.969144294193176e+16
871.9748525897489,3.2243014211392984e+16,1.6644589479996586e+17,52741929851417.336,17397721017925.646,88529232894193.58,2048811028359501.5,4.395453077630474e+16,8.804086990014512e+16
960.1723378487239,3.234624766034511e+16,1.8017408605262074e+17,52910795164439.15,18931109484419.918,96332038963418.53,2246181885153754.2,4.818695326482442e+16,9.722652929868536e+16
1057.1895716335964,3.2441705823413684e+16,1.9518463619258694e+17,53066941961591.03,20563437099756.17,104638324091646.25,2459871963489265.0,5.276925753566504e+16,1.0733553216686606e+17
1163.9085287969563,3.2531282585609292e+16,2.1159990324064218e+17,53213468187553.484,22296202815215.008,113455719523796.67,2690949190808719.0,5.772430960074143e+16,1.1846439647295651e+17
1281.299381676652,3.2616687572825284e+16,2.2955255208686115e+17,53353170382910.2,24129871998848.67,122786597445654.44,2940486007287183.0,6.30750638384028e+16,1.3072004502851888e+17
1410.4293198443174,3.269945425873382e+16,2.4918627298632877e+17,53488556945120.09,26063661253122.035,132626975993910.3,3209541660637850.0,6.88441825699509e+16,1.4422091530281424e+17
1552.4722518287492,3.2780950582939264e+16,2.706565394320632e+17,53621865497303.0,28095315130400.2,142965383012716.2,3499140641337296.0,7.505357286116104e+16,1.5909819278298525e+17
1708.7194770116243,3.2862390688491224e+16,2.941314063421192e+17,53755082088025.766,30220882364499.777,153781717316067.2,3810246829719945.0,8.17238314003656e+16,1.7549717974177366e+17
1880.5914247127869,3.2944846617685612e+16,3.197923506270932e+17,53889960322854.47,32434501741765.777,165046158963323.66,4143732963409320.5,8.887358911860178e+16,1.9357881130636842e+17
2069.6505671840655,3.302925903379768e+16,3.478351580281871e+17,54028038902560.414,34728210457835.324,176718193910176.1,4500345113358565.0,9.651874895133259e+16,2.1352133048642826e+17
2277.615623902472,3.311644625014881e+16,3.7847086282691155e+17,54170656392526.69,37091790564866.98,188745832436049.8,4880661992525687.0,1.0467161307718483e+17,2.3552213322765946e+17
2506.3771862927197,3.3207111040987464e+16,4.119267508495591e+17,54318962363729.89,39512671631674.914,201065113562553.22,5285049127637181.0,1.1333990042174024e+17,2.5979979351163632e+17
2758.0149049219917,3.330184488119418e+16,4.48447441372814e+17,54473924327890.414,41975909632562.99,213599997315773.8,5713608217174958.0,1.225256615159928e+17,2.8659627692717584e+17
3034.816395414191,3.340112941833734e+16,4.882960703427663e+17,54636330145409.74,44464262860504.62,226262750658841.38,6166122392741116.0,1.3222410627010466e+17,3.161793489179187e+17
3339.2980349556105,3.350533512872276e+16,5.3175560599651437e+17,54806785826992.234,46958384751835.39,238954928305286.66,6641998608672214.0,1.4242237112425762e+17,3.48845181035978e+17
3674.227838451172,3.3614717258195268e+16,5.791303387193797e+17,54985708893770.96,49437150301158.04,251569033305551.78,7140209012468146.0,1.5309826549839408e+17,3.8492115505782176e+17
4042.6506222962894,3.3729409308499236e+16,6.307475998688701e+17,55173317722553.06,51878126673733.56,263990911413450.3,7659233891793917.0,1.6421905337791386e+17,4.2476886093485203e+17
4447.915684525919,3.384941451005341e+16,6.869597792517974e+17,55369617597322.49,54258189300899.79,276102885814160.44,8197009631188884.0,1.7574034377704925e+17,4.687872806407929e+17
4893.707252978511,3.3974595928576884e+16,7.481467275775272e+17,55574384526051.234,56554272124652.48,287787574588012.5,8750885997757979.0,1.8760518273261347e+17,5.1741614668733914e+17
5384.077978276362,3.4104666088040776e+16,8.14718647764797e+17,55787148266334.34,58744225218234.7,298932254724064.25,9317597932717006.0,1.997434577325872e+17,5.7113946238324314e+17
5923.485776103998,3.4239177250623564e+16,8.871195961917862e+17,56007176425731.7,60807735923695.58,309433549552208.9,9893257738642768.0,2.1207174058374787e+17,6.30489172156871e+17
6516.834353714399,3.4377513760307108e+16,9.6583173000435e+17,56233461937733.67,62727252883977.1,319202131149996.75,1.0473373962170616e+16,2.244937032756946e+17,6.960489761602065e+17
7169.5177890858395,3.4518888101981556e+16,1.0513804469780993e+18,56464716615414.52,64488838629609.43,328167059457271.8,1.1052903180911808e+16,2.369012391795826e+17,7.684582959009211e+17
7887.469567994424,3.466234250879961e+16,1.1443405671753304e+18,56699373780697.51,66082868930202.56,336279341891926.75,1.1626340088655402e+16,2.4917640418000714e+17,8.484164188132643e+17
8677.216524793868,3.480675800831636e+16,1.2453436974725379e+18,56935603061699.164,67504499139048.92,343514307491352.25,1.2187849516371252e+16,2.6119425444909888e+17,9.366868810890595e+17
9545.938177273256,3.4950872662686664e+16,1.3550868978705864e+18,57171340229352.27,68753831654953.57,349872460273499.44,1.2731441163677458e+16,2.7282659607007635e+17,1.0341021903419862e+18
10501.531995000581,3.509331035824223e+16,1.4743427301650266e+18,57404334290294.03,69835745108969.38,355378611239601.3,1.3251183802739942e+16,2.8394657574120688e+17,1.1415690415721979e+18
11552.68519450064,3.5232620778260196e+16,1.603970714742067e+18,57632212872777.42,70759383145865.67,360079278031073.0,1.3741450709683044e+16,2.944339347415699e+17,1.260074237638505e+18
12708.953713950705,3.5367330130503884e+16,1.7449301525832335e+18,57852565204817.61,71537343973934.64,364038561609826.3,1.4197182504210328e+16,3.041806294003968e+17,1.390691582077334e+18
13980.849085345777,3.5496000842688132e+16,1.898294193419762e+18,58063039761709.5,72184653870276.47,367332923151003.5,1.4614148171568814e+16,3.130964062274806e+17,1.5345900575612367e+18
15379.933993880357,3.5617296914391536e+16,2.0652649579421757e+18,58261451166136.734,72717639895199.95,370045447568022.1,1.4989180814688048e+16,3.2111383024647405e+17,1.693043625427994e+18
16918.927393268394,3.5730050145639788e+16,2.247189466157491e+18,58445888522294.555,73152831311587.22,372260252639083.44,1.5320362796556832e+16,3.281922255895689e+17,1.867442968653252e+18
18611.820132595236,3.583332134630511e+16,2.445576101152662e+18,58614815539823.22,73506010967329.1,374057660865358.44,1.5607136446368864e+16,3.343200206229872e+17,2.059309444249631e+18
20474.00214585476,3.592645018384071e+16,2.6621113618357893e+18,58767152072767.62,73791507697862.92,375510597573482.94,1.585032206234067e+16,3.3951510937729363e+17,2.2703114109549673e+18
22522.40236044024,3.600908780675333e+16,2.898676738162793e+18,58902327483759.36,74021774900716.27,376682445212783.94,1.6052034450707984e+16,3.438230445873891e+17,2.502282964770345e+18
24775.642596484264,3.608120789226467e+16,3.15736567678179e+18,59020298715329.805,74207249488352.56,377626324544894.56,1.6215501642055578e+16,3.4731314262871277e+17,2.757244970746006e+18
27254.206856132692,3.6143094189083176e+16,3.4405007808506757e+18,59121529912845.02,74356441461723.8,378385549659546.56,1.6344802743723164e+16,3.500728647854351e+17,3.0374281556114007e+18
29980.627541745966,3.619530559850052e+16,3.7506515805743693e+18,59206935305511.98,74476177003189.34,378994864536641.0,1.6444553547681222e+16,3.522010877294682e+17,3.345297955721873e+18
32979.69029592056,3.623862281393063e+16,4.0906533891892434e+18,59277791921411.7,74571911540366.4,379482035993352.2,1.651957595620911e+16,3.5380103427251706e+17,3.683580824407128e+18
36278.65932551262,3.627398292018727e+16,4.46362789121528e+18,59335632607543.89,74648041615786.78,379869440811831.56,1.6574588687474732e+16,3.5497366454465696e+17,4.055291801947928e+18
39907.525258063884,3.630240964631859e+16,4.873006172803335e+18,59382131940135.875,74708168581795.58,380175407880961.06,1.6613951591186854e+16,3.558122174475392e+17,4.4637633284098785e+18
43899.277783870275,3.632494692593387e+16,5.322554890245812e+18,59418997545218.49,74755294160132.08,380415213681709.0,1.6641485334113064e+16,3.563983659609471e+17,4.912675502519434e+18
48290.20556225731,3.634260212115275e+16,5.816406192554087e+18,59447877226581.03,74791950123549.56,380601742527310.2,1.6660374641052928e+16,3.568001596832106e+17,5.406088214538793e+18
53120.22611848305,3.635630307442527e+16,6.359091893185172e+18,59470288712816.76,74820277615331.19,380745890468817.2,1.6673149796388834e+16,3.570716400190719e+17,5.948475763838475e+18
58433.24873033136,3.636687060410539e+16,6.955582258298574e+18,59487574666657.23,74842075642695.88,380856812262903.94,1.6681730589196974e+16,3.572537888510056e+17,6.544764681791689e+18
64277.57360336451,3.637500570721653e+16,7.611329676550857e+18,59500881751760.41,74858835565481.48,380942097005514.9,1.668751115371676e+16,3.5737634943619386e+17,7.200375508439405e+18
70706.33096370097,3.638128899706755e+16,8.332317420588698e+18,59511159712785.27,74871772490989.42,381007896771700.44,1.6691463596553596e+16,3.5746004670486336e+17,7.921269230461243e+18
77777.96406007107,3.638618898433495e+16,9.125113710921771e+18,59519174921266.29,74881856501110.22,381059210336710.25,1.6694241925374606e+16,3.575188119358522e+17,8.713999007834444e+18
85556.76046607818,3.639007568380822e+16,9.996931342356277e+18,59525532632997.81,74889855198753.66,381099912563712.8,1.669627376753843e+16,3.575617447158538e+17,9.58576773288867e+18
94113.436512686,3.639323648936868e+16,1.0955693217253065e+19,59530702955707.85,74896360030933.19,381133013094457.06,1.6697833710887628e+16,3.575946808069179e+17,1.0544491906169803e+19
103525.78016395462,3.63958920465644e+16,1.2010104230141307e+19,59535046812798.46,74901825078821.62,381160822569817.94,1.6699097309416018e+16,3.576213459274553e+17,1.1598872297163401e+19
113879.3581803501,3.639821069805906e+16,1.3169730050869703e+19,59538839572647.83,74906596785999.88,381185103905197.4,1.6700178133808062e+16,3.576441467148696e+17,1.275847188478269e+19
125268.29399838512,3.6400320809205e+16,1.4445083449740521e+19,59542291210304.125,74910939324077.27,381207201366196.0,1.6701151718965858e+16,3.576646814949961e+17,1.4033801635285443e+19
137796.12339822366,3.640232081095658e+16,1.5847718895663751e+19,59545562735292.35,74915055260670.78,381228145739853.44,1.670207034417858e+16,3.5768405515830246e+17,1.5436414760586623e+19
151576.73573804603,3.640428714652713e+16,1.7390336232761278e+19,59548779190445.53,74919101913359.55,381248737553495.7,1.6702971122868972e+16,3.577030511611661e+17,1.697901020671204e+19
166735.40931185064,3.64062802631306e+16,1.908689435903178e+19,59552039452963.86,74923203680489.58,381269609821368.06,1.670388416762999e+16,3.577223053606907e+17,1.867554614438736e+19
183409.95024303574,3.64083494188616e+16,2.0952735804006638e+19,59555424097320.86,74927461933572.4,381291278383165.94,1.6704832043950134e+16,3.577422936981621e+17,2.0541364554681238e+19
201751.94526733932,3.641053608513166e+16,2.3004723331575575e+19,59559000960837.5,74931962019385.27,381314177534971.2,1.670583375009937e+16,3.5776341685977043e+17,2.2593327739740066e+19
221928.13979407327,3.6412876599742456e+16,2.5261389667924824e+19,59562829483474.48,74936778719906.77,381338687812732.2,1.6706905932531678e+16,3.577860259134213e+17,2.4849968021183115e+19
244121.9537734806,3.641540416674809e+16,2.774310159493479e+19,59566963979130.74,74941980367967.48,381365156935178.0,1.6708063802042998e+16,3.57810441633343e+17,2.733165181123138e+19
268535.1491508287,3.641815038109602e+16,3.0472239743692464e+19,59571456129590.55,74947631984909.28,381393915770143.56,1.6709321832223676e+16,3.5783696923217946e+17,3.006075938924311e+19
295389.6640659116,3.642114640931865e+16,3.347339552972367e+19,59576356915854.16,74953797710410.06,381425290698987.9,1.6710694300341578e+16,3.578659097690307e+17,3.3061881823799673e+19
324929.6304725028,3.64244239238754e+16,3.6773586785206735e+19,59581718146496.43,74960542725327.06,381459613401181.5,1.6712195715367822e+16,3.578975691765967e+17,3.6362036594516595e+19
357423.5935197531,3.642801586383909e+16,4.040249376290754e+19,59587593701969.32,74967934817165.58,381497228820358.5,1.6713841166447524e+16,3.5793226560985235e+17,3.999090358751002e+19
