t(s),Total solute volume 1,Total retention volume 1,Total 1 volume 1,Total 2 volume 1,Total 3 volume 1,Total 4 volume 1,Total 5 volume 1,Total 6 volume 1
1.0,2242028828366334.5,2243439160089861.2,1410331723524.878,0.0,0.0,0.0,0.0,0.0
2.1,3445731809385028.5,3447924137624451.5,2167512189629.8757,9182497.368827002,36336704.33721845,534128204.62349004,9047292127.836163,15189110263.934696
3.3100000000000005,4414755802924813.5,4417599629757783.0,2777069573064.4946,24698721.367129102,97737033.63388926,1436878328.9291298,24337996229.41247,40859949586.89626
4.641000000000001,5281199881935865.0,5284647838006045.0,3322099820415.0796,46554875.971457206,184225538.69521734,2708807807.647937,45881585471.622696,77035076101.58504
6.105100000000002,6094351107892526.0,6098388326221136.0,3833606593046.5093,75298327.85899042,297968242.5982153,4382005024.695909,74221586028.03766,124634877949.6612
7.7156100000000025,6878995147148182.0,6883624625162881.0,4327181130987.6113,111760926.48345616,442256914.55613875,6505184933.106046,110183119873.51186,185054561042.43198
9.487171000000004,7649862316438187.0,7655099212902093.0,4812089430998.3,157001800.97911552,621282707.7232752,9140389215.014212,154817020328.17737,260071338837.20828
11.435888100000005,8416741326728316.0,8422610459299544.0,5294489009267.717,212300437.79014173,840108766.1449665,12362617129.453754,209393576329.85147,351834959290.68335
13.579476910000007,9186695849910610.0,9193230624454842.0,5778823216244.992,279169416.8511527,1104720623.6673691,16260608518.52716,275415778220.9779,462891051204.8422
15.937424601000009,9965158603189440.0,9972400697922962.0,6268509462257.396,359377747.42971283,1422118547.090585,20938254707.573044,354643176925.38214,596222343334.2139
18.53116706110001,1.0756516868334424e+16,1.0764516372962816e+16,6766307533977.785,454981412.07896435,1800438402.4195817,26516443145.120564,449123057448.75244,755302173999.1017
21.384283767210015,1.1564434406269528e+16,1.1573250265768422e+16,7274522092325.562,568359356.8773038,2249094072.2094703,33135237096.01078,561227246141.3296,944157469893.127
24.522712143931017,1.2392016437957348e+16,1.2401717113831308e+16,7795106452399.68,702253370.2505219,2778935259.8280663,40956304367.52074,693693090620.9774,1167438837964.7808
27.97498335832412,1.3241867090338996e+16,1.3252531378334598e+16,8329698719387.16,859809846.4238921,3402412750.7125964,50165483927.811646,849666732635.3022,1430494837077.2114
31.772481694156536,1.4116064982516388e+16,1.4127782935160338e+16,8879606431247.057,1044620688.9447776,4133740270.1237645,60975336991.20307,1032746084837.8057,1739446429900.2605
35.949729863572195,1.5016074823583852e+16,1.502894872848002e+16,9445750950048.7,1260759843.702011,4989039045.757862,73627485262.01027,1247020184650.5132,2101256477343.0725
40.544702849929415,1.594261288016638e+16,1.5956758246137516e+16,10028582835438.568,1512811394.9023738,5986448983.594025,88394507189.53255,1497101062559.2053,2523788305526.4634
45.59917313492236,1.6895487097277104e+16,1.6911033603011792e+16,10627981274000.69,1805884982.6971147,7146189673.802879,105581153223.0693,1788144096844.7217,3015847135940.733
51.1590904484146,1.7873435243548708e+16,1.7890527608394462e+16,11243152265886.55,2145614576.9212847,8490555534.827347,125524657202.53635,2125853101047.5044,3587198651507.3247
57.27499949325607,1.887398475796079e+16,1.8892783501551092e+16,11872540462617.785,2538137330.6371427,10043832131.153364,148593961033.17834,2516467068913.137,4248560128273.7783
64.00249944258168,1.9893355404638536e+16,1.991403747018303e+16,12513767932985.828,2990050234.614887,11832124647.354134,175187727561.034,2966726481050.3623,5011561227953.891
71.40274938683986,2.092642094924605e+16,2.094918017361533e+16,13163610056033.865,3508343491.858091,13883094241.592524,205731085838.01514,3483818251759.2197,5888673537946.554
79.54302432552385,2.196674008466458e+16,2.199178750657177e+16,13818014974767.17,4100310883.112236,16225603351.178558,240671131070.38266,4075299716947.1865,6893110170179.767
88.49732675807624,2.3006661062935384e+16,2.303422506918057e+16,14472169414211.715,4773438945.22787,18889277160.00597,280471291248.298,4749003579718.773,8038699243875.797
98.34705943388387,2.4037499808850708e+16,2.406782612924843e+16,15120610722520.104,5535278650.957959,21903995824.394283,325604780846.81396,5512927557169.424,9339738062663.8
109.18176537727226,2.50497878718658e+16,2.508313944804178e+16,15757382843306.332,6393305577.11264,25299341148.48464,376547496353.8231,6375114732011.996,10810838457585.656
121.09994191499949,2.6033583928918444e+16,2.6070240702362776e+16,16376232264148.59,7354777288.607522,29104032244.96892,433770870153.7962,7343533329960.529,12466778170528.018
134.20993610649944,2.6978839824619748e+16,2.7019098515972744e+16,16970838271354.686,8426599652.054148,33345396532.933567,497735378073.45764,8425967643683.871,14322378063696.838
148.6309297171494,2.7875808521677976e+16,2.7919982505354124e+16,17535069567979.986,9615216558.589853,38048933369.763176,568885565703.1345,9629934670585.135,16392429721929.746
164.49402268886433,2.871547646766514e+16,2.876389588072309e+16,18063256250698.84,10926539357.28805,43238034822.1259,647647578197.7125,10962643032121.705,18691701622767.555
181.94342495775078,2.948999706874038e+16,2.954300932547365e+16,18550462482947.945,12365932290.159716,48933928039.96201,734430196270.6222,12431011034383.717,21235053159354.03
201.13776745352587,3.0193096185016816e+16,3.025106709248708e+16,18992741568462.504,13938267503.920565,55155892950.527916,829630245890.7985,14041758445965.334,24037683049508.402
222.25154419887846,3.082041630947322e+16,3.088373198674189e+16,19387352454152.5,15648057172.091267,61921785082.512596,933642922365.4257,15801581064090.895,27115530985808.812
245.47669861876633,3.136976501014747e+16,3.143883479836326e+16,19732916010541.83,17499660792.854458,69248855864.29228,1046877041111.6266,17717408245445.18,30485838402039.957
271.024368480643,3.1841236712225364e+16,3.1916497219248012e+16,20029491637676.406,19497553491.140656,77154814318.12885,1169774530112.7437,19796731840541.293,34167856646600.66
299.1268053287073,3.223718573402096e+16,3.2319106085157188e+16,20278560303490.297,21646627698.339264,85659020829.61656,1302832696572.6711,22047981795641.26,38183670691973.11
330.03948586157804,3.2562042438028948e+16,3.2651130708576172e+16,20482908894978.34,23952488290.872196,94783655030.78703,1446627065263.1875,24480911303832.168,42559087139848.88
364.0434344477359,3.2821981992359252e+16,3.2918792689211616e+16,20646421855129.312,26421693012.068855,104554667162.41138,1601832062173.368,27106945551925.668,47324521022907.2
401.44777789250946,3.3024473984506036e+16,3.3129616339926684e+16,20773797870990.086,29061888511.17915,115002316382.34619,1769236664012.111,29939445515176.016,52515811165595.98
442.5925556817604,3.3177757620198164e+16,3.329190438096499e+16,20870219751637.44,31881799365.548077,126161127313.3522,1949752460140.6558,32993843728294.86,58174901900091.375
487.8518112499365,3.3290297993254404e+16,3.3414194351418344e+16,20941012399027.4,34891042985.2329,138069157589.91766,2144412387936.5088,36287622675062.75,64350350501275.74
537.6369923749302,3.3370281222886056e+16,3.3504753552555924e+16,20991325228112.844,38099765080.84076,150766555354.7567,2354359586546.081,39840126394393.47,71097652140420.81
592.4006916124232,3.3425199055583308e+16,3.357116319457901e+16,21025870863953.574,41518114123.437416,164293479628.99713,2580827127488.405,43672218055462.28,78479411354993.64
652.6407607736655,3.3461557913772584e+16,3.3620026847599732e+16,21048742121085.24,45155593611.99534,178687537152.09555,2825110514642.559,47805815395449.97,86565422665253.14
718.9048368510321,3.3484726523027268e+16,3.365681746792064e+16,21063316154636.562,49020343189.21879,193980937664.86624,3088535511279.8647,52263347150268.9,95432744796291.52
791.7953205361354,3.3498914675823676e+16,3.36858556883172e+16,21072241101856.66,53118401091.12498,210197575325.59616,3372423874995.5903,57067174014255.19,105165857526004.61
871.9748525897489,3.3507257956694364e+16,3.3710394351441716e+16,21077489377827.875,57452991640.38262,227350209269.9541,3678058992441.9893,62239010599478.25,115857032576628.5
960.1723378487239,3.3511973022318916e+16,3.3732773547286264e+16,21080455353202.527,62023866779.27021,245437857763.55774,4006652224239.6304,67799343754707.56,127606611910654.12
1057.1895716335964,3.351454514375973e+16,3.3754608854777596e+16,21082073326198.293,66826713362.99649,264443453108.9972,4359310060436.367,73766897915713.95,140524159549065.95
1163.9085287969563,3.351591657778455e+16,3.377697986824895e+16,21082936016109.676,71852629413.5798,284331768848.8118,4737000485599.172,80158050198255.83,154729119366177.1
1281.299381676652,3.3516652304490584e+16,3.380059663435689e+16,21083398819274.258,77087666522.50328,305047609052.6729,5140517287766.638,86986230860012.42,170352047623657.84
1410.4293198443174,3.3517071997884024e+16,3.3825932295653416e+16,21083662824140.566,82512443378.45555,326514278982.5384,5570440590678.193,94261255266379.94,187535912365799.44
1552.4722518287492,3.351734603194023e+16,3.3853319788320816e+16,21083835203133.15,88101846560.39929,348632401079.1749,6027092570283.746,101988574354377.64,206437520005160.75
1708.7194770116243,3.3517559746863716e+16,3.3883016803537e+16,21083969638844.293,93824849347.48282,371279197959.05286,6510488073142.093,110168438850008.81,227229056063952.44
1880.5914247127869,3.35177531748117e+16,3.3915246228362292e+16,21084091313191.152,99644492243.5752,394308415340.5643,7020280742980.881,118794987513939.05,250099741072937.8
2069.6505671840655,3.3517943756758704e+16,3.395021964188734e+16,21084211197283.258,105518077229.05598,417551090721.52856,7555706136441.037,127855284478602.08,275257614148430.78
2277.615623902472,3.351813836820199e+16,3.398815024971383e+16,21084333616098.668,111397629515.8963,440817380607.912,8115524123729.746,137328344517902.6,302931464243982.25
2506.3771862927197,3.351833921160294e+16,3.4029259896306264e+16,21084459955078.543,117230674804.89241,463899636232.6053,8697963631129.675,147184197969096.44,333372932837039.7
2758.0149049219917,3.3518546486489344e+16,3.407378316109264e+16,21084590339734.45,122961366243.25122,486576863091.9416,9300673510757.31,157383059353599.22,366858813169820.4
3034.816395414191,3.3518759507028704e+16,3.412197031501731e+16,21084724338648.598,128531973250.57896,508620612451.1699,9920684018047.398,167874675507574.06,403693571538665.25
3339.2980349556105,3.3518977134638956e+16,3.4174090122877396e+16,21084861235604.902,133884714315.59453,529802233995.5945,10554383996689.908,178597939514146.03,444212116543697.2
3674.227838451172,3.3519197936217556e+16,3.4230433028427016e+16,21085000129121.3,138963878773.90857,549901272025.5768,11197519324938.686,189480864416472.2,488782843188147.44
4042.6506222962894,3.3519420245883576e+16,3.429131503073183e+16,21085139971288.402,143718140802.08246,568714622283.1558,11845218336546.613,200441013388195.62,537810980389161.94
4447.915684525919,3.3519642201290864e+16,3.4357082450194524e+16,21085279590611.754,148102926482.10577,586065898789.5306,12492049636567.668,211386478080011.53,591742272771150.6
4893.707252978511,3.3519861780940636e+16,3.442811772432397e+16,21085417715483.312,152082657692.97495,601814313272.2339,13132116820017.555,222217481424491.6,651067030452408.0
5384.077978276362,3.3520076851636188e+16,3.450484632903524e+16,21085553004032.316,155632672066.39114,615862272732.4065,13759192918789.473,232828652708998.5,716324583822397.8
5923.485776103998,3.35202852286169e+16,3.4587744872542796e+16,21085684081952.01,158740614003.0143,628160883921.4807,14366894847707.16,243111979499811.16,788108183998534.6
6516.834353714399,3.3520484747946092e+16,3.467735034856795e+16,21085809588034.863,161407114313.51288,638712642800.2938,14948894684356.568,252960382853591.22,867070393738789.1
7169.5177890858395,3.352067334879503e+16,3.4774270463316532e+16,21085928225932.61,163645628808.331,647570795831.1877,15499160427983.84,262271791361469.7,953929018081520.6
7887.469567994424,3.352084916155898e+16,3.4879194871277916e+16,21086038819584.97,165481387394.2579,654835181409.2095,16012214249590.17,270953511170369.7,1049473628910540.5
8677.216524793868,3.352101059617055e+16,3.499290707743488e+16,21086140368772.273,166949506810.91302,660644761686.173,16483391682411.035,278926611913743.9,1154572743030908.5
9545.938177273256,3.3521156423687484e+16,3.5116296700765176e+16,21086232100438.055,168092427529.42062,665167479996.8097,16909081416393.79,286129984426009.56,1270181719227300.8
10501.531995000581,3.3521285843505628e+16,3.525037176114942e+16,21086313510968.47,168956929509.80618,668588451758.6685,17286923187972.17,292523689356123.1,1397351446207495.2
11552.68519450064,3.3521398528646224e+16,3.539627066421584e+16,21086384394680.125,169591042755.28372,671097739060.7101,17615941533883.41,298091220491094.2,1537237900368104.5
12708.953713950705,3.3521494642724004e+16,3.5555273628092896e+16,21086444854493.473,170041181576.06085,672879010498.5944,17896596554116.33,302840363733996.44,1691112660034242.0
13980.849085345777,3.352157482448315e+16,3.572881342696312e+16,21086495292205.688,170349790166.42505,674100224350.1213,18130739544321.62,306802446314564.1,1860374471314451.0
15379.933993880357,3.3521640139086012e+16,3.591848551205748e+16,21086536377848.91,170553697820.03516,674907119895.0581,18321471039898.383,310029934644207.5,2046561970091808.0
16918.927393268394,3.352169199926216e+16,3.612605779150129e+16,21086569000089.496,170683263080.36472,675419830671.9572,18472910366124.95,312592534709041.56,2251367675070123.8
18611.820132595236,3.352173206339469e+16,3.635348057424093e+16,21086594202120.58,170762263157.7067,675732446870.9382,18589897445314.35,314572146143473.25,2476653378345302.0
20474.00214585476,3.3521762120884504e+16,3.660289737082307e+16,21086613109550.86,170808384290.29037,675914955757.9603,18677657206287.613,316057183478109.56,2724467072804539.5
22522.40236044024,3.3521783976987276e+16,3.687665735695872e+16,21086626857962.414,170834109481.2641,676016754580.5363,18741462374607.438,317136869992961.6,2997061569881814.0
24775.642596484264,3.3521799349257576e+16,3.717733031805531e+16,21086636527769.527,170847788947.52295,676070886496.211,18786330235623.484,317896106451958.2,3296914976906886.5
27254.206856132692,3.3521809785655636e+16,3.750772479858659e+16,21086643092704.586,170854709221.81573,676098271174.9392,18816782844159.184,318411413463626.5,3626753220550055.0
29980.627541745966,3.3521816610632824e+16,3.787090999892031e+16,21086647385903.42,170858033187.54025,676111424664.2267,18836689180136.57,318748260504899.9,3989574821758667.5
32979.69029592056,3.352182090090099e+16,3.827024173601877e+16,21086650084663.254,170859546307.4013,676117412334.322,18849194217138.96,318959865655954.7,4388678148201338.5
36278.65932551262,3.3521823488154624e+16,3.870939256460476e+16,21086651712155.043,170860198063.27173,676117464517.2301,18856726723225.324,319087327613552.7,4827691392738626.0
39907.525258063884,3.3521824982183504e+16,3.919238601329292e+16,21086652651962.26,170860205678.3019,676117494650.6381,18861067604657.285,319160782187935.75,5310605550964560.0
43899.277783870275,3.3521825807407532e+16,3.972363478108215e+16,21086653171063.03,170860209884.44995,676117511294.7719,18863455507913.04,319201189268365.6,5841810698006084.0
48290.20556225731,3.3521826243497584e+16,4.030798283408936e+16,21086653445382.082,170860212107.19046,676117520090.3707,18864706545085.695,319222358776658.1,6426135894092489.0
53120.22611848305,3.352182646482707e+16,4.095075140466239e+16,21086653584607.715,170860213235.30194,676117524554.4156,18865329354590.28,319232897684083.4,7068893081474246.0
58433.24873033136,3.352182657409816e+16,4.1657789072013416e+16,21086653653343.81,170860213792.254,676117526758.3289,18865623319936.94,319237872033445.25,7775925371168067.0
64277.57360336451,3.352182663000344e+16,4.243552613629487e+16,21086653688510.64,170860214077.20248,676117527885.8965,18865623351390.586,319240093161790.6,8553660158347747.0
70706.33096370097,3.352182666878619e+16,4.329103356610413e+16,21086653712906.61,170860214274.87695,676117528668.1154,18865623373210.5,319240093530215.3,9409167548958618.0
77777.96406007107,3.3521826680390812e+16,4.423209064523557e+16,21086653720206.426,170860214334.0257,676117528902.1714,18865623379739.434,319240093640452.2,1.0350224616361082e+16
85556.76046607818,3.3521826692619496e+16,4.526725215562738e+16,21086653727898.766,170860214396.35495,676117529148.8146,18865623386619.56,319240093756616.7,1.138538611439312e+16
94113.436512686,3.3521826706062596e+16,4.6405928273113704e+16,21086653736355.01,170860214464.874,676117529419.9489,18865623394182.86,319240093884316.06,1.252406221829244e+16
103525.78016395462,3.352182672084978e+16,4.765847013419164e+16,21086653745656.793,170860214540.24365,676117529718.1953,18865623402502.4,319240094024784.7,1.377660406442467e+16
113879.3581803501,3.3521826737115696e+16,4.9036263920911016e+16,21086653755888.703,170860214623.15045,676117530046.2671,18865623411653.902,319240094179300.5,1.5154397834703828e+16
125268.29399838512,3.3521826755008132e+16,5.05518343511431e+16,21086653767143.855,170860214714.34818,676117530407.1437,18865623421720.52,319240094349266.8,1.6669968246851724e+16
137796.12339822366,3.352182677468981e+16,5.221895851486215e+16,21086653779524.43,170860214814.6647,676117530804.1066,18865623432793.81,319240094536229.7,1.833709239067828e+16
151576.73573804603,3.352182679633959e+16,5.40527910904232e+16,21086653793143.05,170860214925.0135,676117531240.7673,18865623444974.324,319240094741888.25,2.017092494435756e+16
166735.40931185064,3.3521826820154244e+16,5.607000207807079e+16,21086653808123.49,170860215046.39612,676117531721.0911,18865623458372.918,319240094968111.94,2.218813590793514e+16
183409.95024303574,3.3521826846350344e+16,5.82889283014802e+16,21086653824601.95,170860215179.91733,676117532249.4457,18865623473111.348,319240095216957.75,2.4407062104867764e+16
201751.94526733932,3.3521826875165964e+16,6.072974005301791e+16,21086653842728.18,170860215326.78973,676117532830.6333,18865623489323.54,319240095490687.44,2.6847873827280956e+16
221928.13979407327,3.352182690686301e+16,6.3414624395739224e+16,21086653862666.957,170860215488.3489,676117533469.9406,18865623507156.91,319240095791788.25,2.9532758137965556e+16
244121.9537734806,3.352182694172971e+16,6.636798678616549e+16,21086653884599.574,170860215666.06348,676117534173.1735,18865623526773.54,319240096122998.8,3.248612049315148e+16
268535.1491508287,3.3521826980082796e+16,6.961667284793652e+16,21086653908725.36,170860215861.54904,676117534946.728,18865623548351.773,319240096487329.3,3.5734806516158476e+16
295389.6640659116,3.3521827022271228e+16,7.31902123090353e+16,21086653935263.57,170860216076.58163,676117535797.634,18865623572087.7,319240096888090.2,3.93083459346167e+16
324929.6304725028,3.352182706867819e+16,7.712108731604184e+16,21086653964455.52,170860216313.11658,676117536733.6272,18865623598197.082,319240097328925.75,4.323922089471911e+16
357423.5935197531,3.352182711972546e+16,8.144502755961942e+16,21086653996566.434,170860216573.30392,676117537763.212,18865623626917.32,319240097813841.9,4.7563161086702184e+16
393166.95287172846,3.352182717587726e+16,8.620133488811006e+16,21086654031888.35,170860216859.5083,676117538895.7502,18865623658509.324,319240098347247.44,5.2319468358439544e+16
432484.6481589014,3.3521827237643868e+16,9.143324035292526e+16,21086654070742.11,170860217174.33102,676117540141.5349,18865623693260.36,319240098933989.06,5.755137376082606e+16
475734.11297479155,3.3521827305586656e+16,9.718829692269704e+16,21086654113480.99,170860217520.63382,676117541511.8868,18865623731486.22,319240099579401.5,6.330643026192693e+16
523308.52427227073,3.3521827380323124e+16,1.0351881142556037e+17,21086654160493.4,170860217901.56396,676117543019.2644,18865623773534.348,319240100289348.44,6.963694468925291e+16
