t(s),Total solute volume 1,Total retention volume 1,Total 1 volume 1,Total 2 volume 1,Total 3 volume 1,Total 4 volume 1,Total 5 volume 1,Total 6 volume 1
1.0,2334382284795834.5,2336211223768372.5,1828938972540.161,0.0,0.0,0.0,0.0,0.0
2.1,3585261018306637.0,3592249773438106.0,2808975858353.937,1228464504.9119775,5150358468.650687,82551827999.35457,1480149266270.354,2610699355875.2295
3.3100000000000005,4590143386845688.0,4604974353289421.0,3596279824462.323,3301910347.72512,13843314002.137545,221914917036.12976,3978792074491.179,7016834403375.293
4.641000000000001,5486572261974343.0,5512033374331854.0,4298612787095.836,6218913754.425563,26072897740.891117,418022404568.2856,7494739913518.667,13217445440826.629
6.105100000000002,6325727779305238.0,6364889644786733.0,4956073293249.495,10049855133.675625,42134181017.91064,675640182850.5991,12113446771649.68,21364521197589.44
7.7156100000000025,7133207160675870.0,7189530298554355.0,5588716221439.692,14902286381.64123,62478077218.06641,1002043386434.7075,17965348841483.547,31689649065514.312
9.487171000000004,7924081541019933.0,8001508742453261.0,6208349485153.4795,20912975314.83979,87677987998.34346,1406485730354.0564,25216352981609.152,44487422272877.43
11.435888100000005,8708223547722893.0,8811272429236796.0,6822708077842.029,28246615765.0842,118424395374.14438,1900117588829.577,34066368165431.26,60113016670653.24
13.579476910000007,9492614494470992.0,9626476589094280.0,7437261710138.28,37097082849.84152,155530124465.4724,2496076297946.028,44750922145720.336,78985207262159.89
15.937424601000009,1.0282482601627314e+16,1.0453132608899054e+16,8056106581212.1455,47690005888.44436,199941130445.67654,3209666552868.996,57544389289596.33,101592213711736.05
18.53116706110001,1.1081914242678248e+16,1.1296231990518422e+16,8682444277239.634,60286199420.51758,252750883017.59488,4058600431349.409,72764280957398.03,128499385091695.02
21.384283767210015,1.189419610021193e+16,1.216010320696289e+16,9318849843202.43,75185727047.8609,315217403901.61176,5063282403508.597,90776333567310.08,160358237805993.78
24.522712143931017,1.2722001959913564e+16,1.3048614704204066e+16,9967418131892.807,92732423134.482,388782223773.1692,6247128176287.091,112000192891398.89,197916490444002.12
27.97498335832412,1.3567477372070124e+16,1.3965276676095794e+16,10629830134326.176,113318664100.09343,475090385502.01495,7636904102703.361,136915456691482.45,242028704047546.84
31.772481694156536,1.4432249080322302e+16,1.4913267676863008e+16,11307360366959.578,137390105694.59781,576010304675.3265,9263068942804.273,166067750977576.47,293667015843023.0
35.949729863572195,1.5317375966939162e+16,1.589540171825052e+16,12000838438428.164,165450015089.18008,693651931348.1326,11160093988670.191,200074413260080.6,353931303677741.1
40.544702849929415,1.6223256466428748e+16,1.6914049485137248e+16,12710576510225.393,198062755387.69495,830381358340.4344,13366732868004.482,239629273075792.16,424057992140742.94
45.59917313492236,1.71495095124726e+16,1.7971029331923398e+16,13436276021367.748,235855950301.11322,988829896216.484,15926210399583.26,285505985822313.8,505426661361024.8
51.1590904484146,1.809484897923706e+16,1.9067486718238224e+16,14176929316082.705,279520884110.2074,1171895749884.3289,18886301758356.56,338559409788132.44,599563681504634.1
57.27499949325607,1.9056973060326456e+16,2.020378252165041e+16,14930732974836.389,329810779449.0509,1382736798206.771,22299279112862.625,399724621877540.44,708142279781037.6
64.00249944258168,2.003248893128702e+16,2.1379410031532684e+16,15695028789265.652,387536733197.0482,1624753555549.666,26221712183318.906,470013333589400.0,832978735394910.4
71.40274938683986,2.1016889263374304e+16,2.2592957224751404e+16,16466285361444.752,453561261797.951,1901562111234.3613,30714120700445.973,550507675017769.56,976024756924390.4
79.54302432552385,2.2004591440400076e+16,2.3842125834684856e+16,17240128829637.557,528789594243.9831,2216957626513.6763,35840489368899.31,642351540215358.1,1139356488650175.5
88.49732675807624,2.298904383921798e+16,2.5123812870997348e+16,18011426136929.83,614159041845.0969,2574869768948.727,41667668873494.3,746739917966101.9,1325160989992062.8
98.34705943388387,2.3962897380521204e+16,2.643425472473827e+16,18774419437696.617,710626964053.8865,2979312261246.0103,48264699426156.83,864906862489803.1,1535721423638147.8
109.18176537727226,2.491823545644989e+16,2.7769229517861776e+16,19522906240986.926,819158038387.6915,3434329513000.589,55702106339261.93,998112988727940.0,1773402572552306.5
121.09994191499949,2.5846851488671332e+16,2.9124310116403744e+16,20250456871293.234,940711726311.8799,3943944074420.9204,64051229950508.69,1147633603510258.5,2040638681599598.5
134.20993610649944,2.6740560535549964e+16,3.0495157956814256e+16,20950658605980.2,1076230991554.3875,4512109341169.338,73383664033184.72,1314748791570714.5,2339925966721692.0
148.6309297171494,2.759152914716342e+16,3.1877846048998104e+16,21617374109439.434,1226633442873.4219,5142672423854.809,83770885673433.86,1500736930085877.0,2673822406099227.5
164.49402268886433,2.839260576793258e+16,3.326919779267833e+16,22245000296225.527,1392806095491.0852,5839352188716.439,95284162556335.73,1706873155540649.5,3044957548068272.5
181.94342495775078,2.913763241993943e+16,3.4667126433061236e+16,22828712527966.34,1575604823698.286,6605736965773.528,107994817276938.3,1934434192300616.8,3456054949226791.0
201.13776745352587,2.9821717526197372e+16,3.607095831183586e+16,23364678364236.824,1775859268825.8667,7445305128159.487,121974909727366.47,2184710621120262.2,3909969412029659.0
222.25154419887846,3.0441450146085136e+16,3.7481722065577064e+16,23850225411123.242,1994383453415.1418,8361469594163.049,137298366381620.17,2459027092749033.0,4409740381902590.0
245.47669861876633,3.099503819858891e+16,3.890238623259785e+16,24283949615898.33,2231991653958.514,9357644375305.195,154042540456216.03,2758770195365830.5,4958661712541772.0
271.024368480643,3.1482357807178904e+16,4.033802989539224e+16,24665753927462.344,2489518266604.717,10437327864543.572,172290133500834.8,3085422736092085.5,5560366618561739.0
299.1268053287073,3.1904907643265236e+16,4.1795935250839656e+16,24996812525286.473,2767839570774.3774,11604194081351.39,192131353817532.47,3440602217506417.5,6218925190073082.0
330.03948586157804,3.22656704870688e+16,4.328559718115054e+16,25279462355276.566,3067894590136.039,12862180132716.064,213666138938022.84,3826100434361995.5,6938950583703612.0
364.0434344477359,3.256889311805467e+16,4.48186523688791e+16,25517030678685.9,3390701806098.4595,14215556286423.059,237006237146219.1,4243920542217979.0,7725709182688999.0
401.44777789250946,3.2819803767280452e+16,4.6408738279708136e+16,25713613702197.527,3737368403601.374,15668964736946.691,262276933825497.53,4696307784868975.0,8585229846890303.0
442.5925556817604,3.3024292382886356e+16,4.807129927397742e+16,25873826072953.07,4109089071271.5225,17227414579179.105,289618225542985.06,5185770370498200.0,9524407965326522.0
487.8518112499365,3.3188581844397388e+16,4.9823362108087464e+16,26002543282196.39,4507132109113.242,18896223570208.125,319185286461402.0,5715087726126979.0,1.0551101352140198e+16
537.6369923749302,3.3318917520871136e+16,5.168330534871252e+16,26104658440930.21,4932811610139.581,20680901507145.777,351148130871210.6,6287304411940447.0,1.1674216913471442e+16
592.4006916124232,3.342129838038209e+16,5.367064641555121e+16,26184871610138.15,5387445614022.379,22586974793340.863,385690441372804.2,6905709146333866.0,1.2903789155444922e+16
652.6407607736655,3.3501266036061612e+16,5.58058663063346e+16,26247524523025.117,5872301198319.432,24619756240526.42,423007591981242.25,7573799456121918.0,1.425105364020787e+16
718.9048368510321,3.356375991302871e+16,5.811028624943453e+16,26296487111520.855,6388528319773.608,26784067705075.438,463303938073694.4,8295233226378262.0,1.5728520088817498e+16
791.7953205361354,3.3613038548883e+16,6.060600361419661e+16,26335095846973.957,6937084753537.339,29083925400895.758,506789463635851.56,9073768755387040.0,1.7350050740289296e+16
871.9748525897489,3.36526601468764e+16,6.3315887527537976e+16,26366138504013.336,7518654697246.894,31522198649842.637,553675869321388.8,9913194797352926.0,1.913094972213616e+16
960.1723378487239,3.368551073202815e+16,6.626362880472328e+16,26391876220268.926,8133563588240.078,34100252752317.492,604172156758724.1,1.0817251575821196e+16,2.1088068647554364e+16
1057.1895716335964,3.371386594324959e+16,6.9473834698798104e+16,26414091909164.09,8781691562487.459,36817586158690.31,658479724005120.5,1.1789543028837544e+16,2.323993263307547e+16
1163.9085287969563,3.373947245934964e+16,7.29721569091392e+16,26434154055420.53,9462387918757.861,39671471849379.95,716786944833327.6,1.2833439794876422e+16,2.560688969625615e+16
1281.299381676652,3.376363677173729e+16,7.678544119183218e+16,26453086266536.62,10174389075350.195,42656613350442.15,779263171118788.9,1.3951971853543702e+16,2.8211285306739944e+16
1410.4293198443174,3.378731177682002e+16,8.094188843275069e+16,26471635116044.055,10915742899889.713,45764827459860.63,846052081322436.0,1.5147709446154556e+16,3.1077662922977836e+16
1552.4722518287492,3.381117477197501e+16,8.547121968784586e+16,26490331251649.195,11683742964377.986,48984768575895.97,917264304250618.2,1.6422631013583496e+16,3.423299075524469e+16
1708.7194770116243,3.3835693349121588e+16,9.040484096777085e+16,26509541021409.543,12474877162945.607,52301713230544.516,992969278251460.1,1.777797744411444e+16,3.7706914764868456e+16
1880.5914247127869,3.386117804424091e+16,9.577600704218645e+16,26529507723483.527,13284796097681.795,55697427489665.17,1073186361818511.8,1.921409292332248e+16,4.153203798149354e+16
2069.6505671840655,3.3887822279748988e+16,1.01619987002022e+17,26550382900107.906,14108307505607.441,59150143519884.54,1157875290870495.2,2.0730254097358116e+16,4.574422650011864e+16
2277.615623902472,3.39157311504781e+16,1.0797423762893152e+17,26572248890785.496,14939403548176.201,62634673922299.945,1246926178705923.2,2.2324491063764776e+16,5.03829429096214e+16
2506.3771862927197,3.3944941072843052e+16,1.1487859377348003e+17,26595134226978.957,15771327774824.002,66122692393084.35,1340149374228113.8,2.3993405844286504e+16,5.549160832772748e+16
2758.0149049219917,3.397543239964242e+16,1.2237548798753664e+17,26619023515531.707,16596687765066.934,69583205889415.05,1437265629037945.2,2.5731996410056276e+16,6.111799463163009e+16
3034.816395414191,3.400713695409561e+16,1.3051021464133245e+17,26643863341421.824,17407617636754.158,72983235863763.9,1537897169148502.5,2.7533496927026116e+16,6.731464887422023e+16
3339.2980349556105,3.4039942180155252e+16,1.3933125667826398e+17,26669565519441.438,18195991632040.527,76288713654492.22,1641560414128899.2,2.938924752055478e+16,7.413935229261883e+16
3674.227838451172,3.4073693326444836e+16,1.4889069592387997e+17,26696008805264.375,18953685821020.086,79465577632765.88,1747661222882407.0,3.1288609297879784e+16,8.16556168044142e+16
4042.6506222962894,3.4108194825449148e+16,1.5924473025274422e+17,26723039976012.125,19672879730175.484,82481037768224.98,1855493653122448.2,3.321894229552407e+16,8.99332225211739e+16
4447.915684525919,3.414321181499239e+16,1.7045432258144675e+17,26750475022298.773,20346383770856.844,85304948405810.62,1964243277300644.5,3.516566501254066e+16,9.904880066941445e+16
4893.707252978511,3.417847257197007e+16,1.825860071319584e+17,26778101055007.01,20967972339542.586,87911204874537.19,2072996072551869.2,3.711241373600021e+16,1.0908646747316725e+17
5384.077978276362,3.4213672472855772e+16,1.9571287714737725e+17,26805679408259.105,21532697276108.906,90279057804531.44,2180753764583876.2,3.904131739748411e+16,1.2013851607796445e+17
5923.485776103998,3.424847994040999e+16,2.0991577467813366e+17,26832950298533.492,22037153079794.66,92394225243572.78,2286456225181431.5,4.093339867889579e+16,1.3230617550502438e+17
6516.834353714399,3.4282544660209816e+16,2.2528469671898096e+17,26859639262135.81,22479665012926.625,94249681525992.67,2389011077879592.0,4.2769104115253096e+16,1.4570044787983734e+17
7169.5177890858395,3.43155081378901e+16,2.4192042263079507e+17,26885465426567.766,22860374885470.06,95846017195207.58,2487330050722511.5,4.452895492060669e+16,1.6044303766406848e+17
7887.469567994424,3.434701641124623e+16,2.5993635559958106e+17,26910151470180.61,23181207328628.254,97191297876813.5,2580370849575316.5,4.619429656238862e+16,1.7666738911969533e+17
8677.216524793868,3.437673443635557e+16,2.794605566209895e+17,26933434893387.395,23445711373594.914,98300400337010.25,2667182466334213.5,4.774810973478739e+16,1.9451985043690838e+17
9545.938177273256,3.440436135502718e+16,3.0063793460963744e+17,26955079980375.887,23658786839451.14,99193865539509.0,2746950980431935.0,4.917583006702186e+16,2.1416098447479722e+17
10501.531995000581,3.4429645559821764e+16,3.2363254289829235e+17,26974889602221.902,23826320175672.8,99896372000024.2,2819042194628873.0,5.046611107042486e+16,2.3576704649163856e+17
11552.68519450064,3.445239825365145e+16,3.4862992335870515e+17,26992715840538.977,23954767186510.004,100434986336441.83,2883037027847336.0,5.1611457353440216e+16,2.5953164825440262e+17
12708.953713950705,3.447250411063996e+16,3.7583943757968154e+17,27008468340029.08,24050727692926.918,100837379910790.2,2938755628376380.0,5.260865587177684e+16,2.8566762539294477e+17
13980.849085345777,3.448992773451386e+16,4.054965325078443e+17,27022119368490.48,24120557653255.832,101130202427974.84,2986266790923313.0,5.345894409196735e+16,3.144091210109908e+17
15379.933993880357,3.4504714910121212e+16,4.3786490707325504e+17,27033704797355.227,24170057034156.66,101337773061251.39,3025880499475602.5,5.416787612218441e+16,3.460138940065811e+17
16918.927393268394,3.4516988146534624e+16,4.7323857609811974e+17,27043320609807.13,24204258095377.145,101481192547330.53,3058123194353845.5,5.474487966336631e+16,3.807658563226119e+17
18611.820132595236,3.4526936664948504e+16,5.119438654051829e+17,27051115056518.65,24227321656783.492,101577908023233.14,3083697459888959.5,5.5202534183914296e+16,4.189778407516946e+17
20474.00214585476,3.4534801694976932e+16,5.543414123994601e+17,27057277135621.336,24242532164477.63,101641692137191.67,3103429913656715.0,5.555563802276476e+16,4.6099460126662464e+17
22522.40236044024,3.4540858582441436e+16,6.008282828165864e+17,27062022574548.85,24252369551170.863,101682944196432.86,3118212751897999.5,5.582016206901513e+16,5.071960520769098e+17
24775.642596484264,3.4545397650153256e+16,6.518403399279493e+17,27065578834878.297,24258629302137.78,101709193495235.97,3128945299607121.5,5.601220364818573e+16,5.5800075992837037e+17
27254.206856132692,3.4548705890164504e+16,7.078550119195593e+17,27068170768609.59,24262562219215.895,101725685292628.34,3136481789680178.5,5.614705200668292e+16,6.138697158147508e+17
29980.627541745966,3.45510513612517e+16,7.693945942508294e+17,27070008393934.703,24265010745714.527,101735952415948.42,3141590429504925.5,5.623845590126717e+16,6.753104255872492e+17
32979.69029592056,3.455267165543505e+16,8.370301985199717e+17,27071277859007.863,24266526884306.492,101742309714069.05,3144926826421014.5,5.629814822753466e+16,7.428813716961212e+17
36278.65932551262,3.4553767090525012e+16,9.113864236418982e+17,27072136108454.664,24267465072778.707,101746243523048.28,3147022459856660.0,5.633563995649421e+16,8.171969082903183e+17
39907.525258063884,3.4554498535420596e+16,9.931467874501261e+17,27072709179540.984,24268049934064.656,101748695781029.0,3148286625508668.5,5.635825516032547e+16,8.989326576739772e+17
43899.277783870275,3.45549891378527e+16,1.0830599258847374e+18,27073093555821.895,24268422735529.84,101750258864791.47,3149018601487728.5,5.6371348932918296e+16,9.888314774373216e+17
48290.20556225731,3.4555328817493904e+16,1.1819465492784146e+18,27073359687395.41,24268671834652.22,101751303272120.64,3149425980516154.5,5.6378635602787496e+16,1.0877100655428201e+18
53120.22611848305,3.455558025889933e+16,1.2907071436123336e+18,27073556686239.992,24268852112867.914,101752059122839.77,3149645207218613.0,5.638255634955065e+16,1.1964662673287421e+18
58433.24873033136,3.4555785261971056e+16,1.4103304174966574e+18,27073717301665.28,24268997297240.42,101752662763076.62,3149761153974806.0,5.638462956387031e+16,1.3160871461394796e+18
64277.57360336451,3.455597059921412e+16,1.5419025184190157e+18,27073862509343.746,24269127461862.914,101753208496445.9,3149823722886783.0,5.638574795090912e+16,1.447657879947535e+18
70706.33096370097,3.4556152885123948e+16,1.6866170684996887e+18,27074005326369.195,24269255483496.58,101753745245033.77,3149860623363201.0,5.638640717289202e+16,1.592371550812253e+18
77777.96406007107,3.4556342286122696e+16,1.845786095610387e+18,27074153717911.414,24269388502144.613,101754302944302.25,3149886386568150.5,5.638686714023459e+16,1.7515399019522967e+18
85556.76046607818,3.4556545137511056e+16,2.0208519568093135e+18,27074312647539.78,24269530967166.492,101754900248812.62,3149908226854637.0,5.638725687866011e+16,1.9266051478224256e+18
94113.436512686,3.4556765663668656e+16,2.2134003669611474e+18,27074485424963.47,24269685845395.91,101755549597429.6,3149929565193270.0,5.63876375618154e+16,2.1191529344496023e+18
103525.78016395462,3.4557007038085884e+16,2.4251746569688755e+18,27074674536542.85,24269855365614.082,101756260334630.42,3149951990675065.5,5.638803759878164e+16,2.330926559551099e+18
113879.3581803501,3.455727201232923e+16,2.6580913933020877e+18,27074882138070.113,24270041460280.133,101757040562519.36,3149976132908172.5,5.638846823881833e+16,2.5638425749538703e+18
125268.29399838512,3.4557563205825296e+16,2.9142575100516296e+18,27075110281808.67,24270245969049.348,101757897994108.16,3150002664019670.5,5.638894149073063e+16,2.8200078994368097e+18
137796.12339822366,3.4557883378205268e+16,3.1959890837013074e+18,27075361129869.29,24270470830044.727,101758840755248.72,3150031835443974.5,5.63894618395015e+16,3.101738601975437e+18
151576.73573804603,3.455823547173522e+16,3.505831933616024e+18,27075636987453.062,24270718109655.85,101759877509567.62,3150063915255636.5,5.639003406693122e+16,3.4115804939294956e+18
166735.40931185064,3.455862268625224e+16,3.846584209612016e+18,27075940361562.508,24270990055167.582,101761017679120.7,3150099194996890.0,5.639066337342479e+16,3.7523317164092447e+18
183409.95024303574,3.4559048525826348e+16,4.221321155058811e+18,27076273997559.73,24271289127531.293,101762271581790.27,3150137993929093.0,5.639135545382642e+16,4.12706750325052e+18
201751.94526733932,3.4559516836695628e+16,4.633422247073724e+18,27076640908888.414,24271618028007.383,101763650542987.95,3150180662489098.0,5.639211655907222e+16,4.5391673211059876e+18
221928.13979407327,3.456003184384362e+16,5.086600931372661e+18,27077044405730.535,24271979723853.504,101765167003355.4,3150227585621766.0,5.639295355563432e+16,4.992344604196433e+18
244121.9537734806,3.456059818918231e+16,5.584937186587897e+18,27077488124922.88,24272377475141.566,101766834631199.69,3150279186258997.5,5.639387398757637e+16,5.490679318524648e+18
268535.1491508287,3.4561220972659348e+16,6.132913171093456e+18,27077976062162.766,24272814863627.445,101768668443532.03,3150335929064968.5,5.6394886143358424e+16,6.038653608589011e+18
295389.6640659116,3.456190579699038e+16,6.735452224426819e+18,27078512607055.574,24273295824167.117,101770684937785.97,3150398324511825.5,5.63959991285358e+16,6.641190798683393e+18
324929.6304725028,3.45626588165056e+16,7.397961515093667e+18,27079102581384.29,24273824679022.22,101772902235646.67,3150466933330108.5,5.639722294514265e+16,7.303698040569192e+18
357423.5935197531,3.4563486790530988e+16,8.126378646681722e+18,27079751280933.23,24274406175350.5,101775340240235.38,3150542371372402.0,5.639856857844467e+16,8.032112919443668e+18
393166.95287172846,3.4564397141717236e+16,8.927222554516191e+18,27080464521186.977,24275045526170.664,101778020807861.31,3150625314927771.0,5.640004809173297e+16,8.832954350436958e+18
