t(s),Total solute volume 1,Total retention volume 1,Total 1 volume 1,Total 2 volume 1,Total 3 volume 1,Total 4 volume 1,Total 5 volume 1,Total 6 volume 1
1.0,2548049688294564.5,2551265381540587.5,3215693246039.0884,0.0,0.0,0.0,0.0,0.0
2.1,3916051042502615.0,3921005927912711.0,4942140060786.564,2315928.611427565,11007251.341217587,212852648.8922644,4306142859.139976,8213030621.096313
3.3100000000000005,5017350936005697.0,5023717204325345.0,6332003959946.8,6229677.361065468,29608685.754604258,572620786.6134804,11583254864.001678,22072645677.52584
4.641000000000001,6002076406497897.0,6009715730905732.0,7574748464065.261,11743181.352686828,55813501.129484534,1079549267.5267532,21836371264.333508,41592466562.45919
6.105100000000002,6926241969525527.0,6935087485269039.0,8741065080722.68,18994961.63055417,90280066.60757212,1746453779.7448454,35324759748.901566,67270174246.558205
7.7156100000000025,7818017123561586.0,7828038683470843.0,9866504314868.38,28195437.844885807,134008473.66242717,2592784450.2550125,52441823288.02277,99858782754.85156
9.487171000000004,8694144248594536.0,8705334320785114.0,10972195405509.818,39612554.607585415,188272220.61969897,3643314291.9983063,73688596528.89304,140316989473.6844
11.435888100000005,9565751355228928.0,9578118248669690.0,12072182138355.408,53570106.83354684,254610253.31939772,4927996733.537872,99670870687.05267,189804254638.09055
13.579476910000007,1.0440874225349352e+16,1.0454438517912674e+16,13176605840758.729,70451060.87364872,334842749.8841766,6482285213.17794,131105650596.31413,249693492909.76044
15.937424601000009,1.1325707197859832e+16,1.1340499777404212e+16,14293283899711.678,90703630.69938634,431099999.6498403,8347709803.165485,168832789084.48547,321593342157.32806
18.53116706110001,1.2225284062618962e+16,1.2241345072407126e+16,15428569064188.549,114849345.48459554,545860746.5879868,10572641705.24225,213830381557.09952,407376990638.8986
21.384283767210015,1.3143872257501832e+16,1.3161250592668858e+16,16587846929837.11,143492833.10210735,681998687.6904063,13213221541.975204,267233406890.4648,509216117261.6913
24.522712143931017,1.4085206104569678e+16,1.4103959263868e+16,17775830287518.82,177333197.33981732,842836545.301647,16334441767.274769,330355388072.0632,629619011198.9146
27.97498335832412,1.5052617201791072e+16,1.5072811371125556e+16,18996723679948.62,217176858.46091935,1032207093.5353019,20011373179.652405,404712842642.76776,771472054763.9554
31.772481694156536,1.604908818386629e+16,1.6070798459848404e+16,20254291248587.5,263951608.08875442,1254519955.0982914,24330515120.89413,492052093906.9713,938083652952.2413
35.949729863572195,1.7077240826332734e+16,1.7100551499892276e+16,21551841720527.227,318721424.264413,1514832010.0165422,29391230652.59826,594377660866.7747,1133229394036.173
40.544702849929415,1.8139263644506356e+16,1.8164268468094476e+16,22892137036814.938,382701330.49721724,1818918012.5254087,35307204495.29776,713980988359.3125,1361196739106.0947
45.59917313492236,1.923678445371776e+16,1.926358681842023e+16,24277231521040.684,457271308.06757635,2173336707.5833025,42207836815.63969,853467796874.3551,1626826939748.9832
51.1590904484146,2.037069755128407e+16,2.0399410507245788e+16,25708253779864.758,543988037.8237648,2585486631.080777,50239464983.92998,1015781921481.4312,1935551320725.4314
57.27499949325607,2.1540961039737564e+16,2.1571707107173416e+16,27185150921412.434,644593106.646842,3063645107.428076,59566292804.41481,1204223263999.8328,2293418719356.6865
64.00249944258168,2.274638515506363e+16,2.27792958937509e+16,28706421421969.293,761016297.1827705,3616983879.484329,70370905425.78528,1422457463477.1184,2707110896209.695
71.40274938683986,2.398443555368592e+16,2.4019650884049096e+16,30268866871036.484,895372694.4520059,4255555352.4734573,82854258822.32822,1674515112240.5566,3183943193059.0244
79.54302432552385,2.5251075462056732e+16,2.5288742757439732e+16,31867392761850.848,1049952574.4063997,4990244533.674775,97235054006.21352,1964778781376.8398,3731848588651.859
88.49732675807624,2.654066752462451e+16,2.6580940518788624e+16,33494884622493.566,1227203363.1112194,5832683287.7830925,113748435750.31151,2297956724680.8438,4359344494484.4565
98.34705943388387,2.784595104005645e+16,2.788898861406535e+16,35142179288491.723,1429703354.8192964,6795125427.039735,132643992079.75511,2679042870784.1587,5075483028775.507
109.18176537727226,2.9158104364220384e+16,2.9204069291992916e+16,36798143657535.2,1660127358.1783864,7890283441.180785,154183074650.28976,3113263594528.366,5889787035037.494
121.09994191499949,3.0466896741546424e+16,3.051595448430432e+16,38449866304501.97,1921205031.2024374,9131130482.860603,178635514135.97638,3606012829900.552,6812175773885.138
134.20993610649944,3.1760929303317624e+16,3.181324695166178e+16,40082961626773.0,2215673406.7368608,10530674746.193497,206275872727.89633,4162778419187.834,7852886077391.748
148.6309297171494,3.3027961325700484e+16,3.308370679580956e+16,41681981588807.26,2546226023.183706,12101717715.027977,237379460227.5725,4789064231947.574,9022396884351.027
164.49402268886433,3.4255314376739976e+16,3.431465597497317e+16,43230925763839.7,2915462131.3940024,13856612776.511473,272218438919.8533,5490314492295.778,10331367463194.473
181.94342495775078,3.5430342790409776e+16,3.549344926767579e+16,44713835081287.12,3325840538.6895742,15807045875.516771,311058446098.17285,6271848743861.077,11790602108352.967
201.13776745352587,3.654095331283502e+16,3.660799453413209e+16,46115447630025.34,3779643572.682305,17963864265.40191,354156253924.4707,7138817614072.224,13411056291194.535
222.25154419887846,3.757614970815113e+16,3.764729806019939e+16,47421885960854.664,4278957118.3705177,20336981647.662792,401759038807.8172,8096190522923.117,15203900586976.695
245.47669861876633,3.852657032015173e+16,3.860200296716018e+16,48621335498722.695,4825672381.024866,22935386562.420822,454105817263.54254,9148786148377.586,17180658485118.219
271.024368480643,3.938497952960132e+16,3.946488160065601e+16,49704664770171.56,5421513664.592526,25767274415.054516,511431494906.6615,10301354281917.988,19353431719559.11
299.1268053287073,4.014666966231842e+16,4.023123841193692e+16,50665932617837.555,6068093860.49703,28840311192.549908,573973752433.799,11558713344110.682,21735221499141.02
330.03948586157804,4.080973017477863e+16,4.089918010149519e+16,51502727916675.95,6766995559.111437,32162018946.89078,641982658307.2893,12925941298151.66,24340345828969.543
364.0434344477359,4.137514741117479e+16,4.1469716251214696e+16,52216295468285.484,7519871063.03412,35740251104.43293,715732479470.2495,14408609516895.473,27184942453024.895
401.44777789250946,4.184671149020718e+16,4.194666693113846e+16,52811418489522.91,8328549758.635939,39583702741.08102,795534715289.6985,16013040416564.268,30287535057384.01
442.5925556817604,4.223072620904066e+16,4.233637310133099e+16,53296052505324.85,9195137224.496916,43702381583.3792,881750988329.3737,17746561968758.55,33669629309127.32
487.8518112499365,4.253554099584108e+16,4.264722878985997e+16,53680734663735.63,10122088173.65012,48107954651.73102,974804183475.04,19617727403897.92,37356297724967.87
537.6369923749302,4.277094728774753e+16,4.288907740123816e+16,53977821953488.59,11112235751.81898,52813887482.59751,1075186219486.5648,21636468210064.81,41376710984372.695
592.4006916124232,4.294750085466461e+16,4.307253368976265e+16,54200635963963.76,12168763306.975111,57835309942.32138,1183461111425.8335,23814153867814.29,45764580081531.945
652.6407607736655,4.3075842297916376e+16,4.32083036807677e+16,54362605341856.43,13295111252.60742,63188573569.59862,1300262522662.28,26163542363321.434,50558488938612.6
718.9048368510321,4.316608731815687e+16,4.3306574223901464e+16,54476496297983.07,14494819999.363808,68890505077.69061,1426285720746.6729,28698619630062.1,55802118770634.92
791.7953205361354,4.3227345791664344e+16,4.337653133063645e+16,54553805672680.336,15771318405.34278,74957400928.1981,1562274588859.0212,31434340660573.367,61544389330667.63
871.9748525897489,4.326740643881306e+16,4.3426044197352024e+16,54604362981629.32,17127673856.311737,81403839545.30096,1709004924435.1594,34386296547276.645,67839562572271.875
960.1723378487239,4.329259657823521e+16,4.346152450804129e+16,54636153423102.03,18566323384.252197,88241403409.6814,1867265528042.7722,37570337141685.516,74747365986347.38
1057.1895716335964,4.330779987517006e+16,4.348794433340629e+16,54655340276850.76,20088804477.97102,95477399780.6728,2037838550948.2087,41002193144039.4,82333520060061.1
1163.9085287969563,4.3316596471718936e+16,4.350897484874857e+16,54666441751214.06,21695500877.59987,103113652113.80203,2221479598145.7705,44697013303368.125,90668633223926.75
1281.299381676652,4.3321474850102664e+16,4.352720100917404e+16,54672598358743.77,23385410670.695126,111145398580.5322,2418899102098.3735,48669097851168.03,99831032950050.7
1410.4293198443174,4.3324074673007544e+16,4.354436308305206e+16,54675879385349.68,25155942912.842728,119560324934.06168,2630742936450.028,52931429043749.445,109905642410955.38
1552.4722518287492,4.332541784338643e+16,4.356158887882765e+16,54677574492251.24,27002741037.638447,128337725365.84601,2857572826459.2417,57495299563903.97,120985248092198.69
1708.7194770116243,4.33261059542598e+16,4.357959189087382e+16,54678442901433.78,28919534682.234352,137447798262.50586,3099845002690.276,62369882511653.83,133171398865221.77
1880.5914247127869,4.3326472970371784e+16,4.359882467279457e+16,54678906082839.59,30898023170.83497,146851092424.4541,3357886339103.6387,67561750609307.79,146575410275867.38
2069.6505671840655,4.332669339910963e+16,4.361958767159784e+16,54679184268154.28,32927798841.976887,156498142652.89554,3631867462538.954,73074334473592.52,161319460342502.22
2277.615623902472,4.33268528889974e+16,4.364210046477643e+16,54679385547466.24,34996323428.95989,166329357486.98615,3921772796937.481,78907319322207.23,177537772431483.3
2506.3771862927197,4.3326990800459336e+16,4.3666544971914664e+16,54679559594388.74,37088974617.53522,176275240478.2649,4227368017831.6216,85055989722491.28,195377889905519.34
2758.0149049219917,4.332712395695912e+16,4.369308989277557e+16,54679727640457.45,39189181698.361176,186257034912.78488,4548165885985.372,91510541870416.97,215002054202995.94
3034.816395414191,4.3327258911648536e+16,4.3721903762407336e+16,54679897955876.11,41278668326.604904,196187877589.3256,4883391889648.61,98255392131618.14,236588702235777.38
3339.2980349556105,4.332739781068544e+16,4.3753161768225064e+16,54680073249137.26,43337816533.96706,205974528882.63037,5231951562936.406,105268519384321.8,260334100997914.88
3674.227838451172,4.3327540984971096e+16,4.3787049531875656e+16,54680253937844.805,45346159226.24739,215519713468.7803,5592401774946.645,112520887302523.06,286454138016584.75
4042.6506222962894,4.332768800843807e+16,4.382376567230637e+16,54680439484293.26,47282998504.537476,224725059061.1306,5962928695026.29,119976000991776.36,315186286639618.8
4447.915684525919,4.3327838097658664e+16,4.38635241101751e+16,54680628899781.95,49128134567.27066,233494560711.41913,6341335502687.3125,127589659703622.4,346791765715048.6
4893.707252978511,4.332799025388995e+16,4.390655660584511e+16,54680820923877.87,50862675383.30591,241738428996.90887,6725043167799.63,135309972533999.77,381557914225099.6
5384.077978276362,4.3328143315827896e+16,4.3953115792963656e+16,54681014090993.15,52469882039.51133,249377107760.25708,7111107697219.61,143077705433632.44,419800802924149.3
5923.485776103998,4.3328295988008136e+16,4.40034788635259e+16,54681206766226.58,53935990570.43046,256345180074.41208,7496257032681.817,150827023608201.84,461868106939995.5
6516.834353714399,4.332844686808876e+16,4.405795200826839e+16,54681397179795.86,55250940646.41713,262594831527.73254,7876950192613.924,158486681472349.1,508142265562774.75
7169.5177890858395,4.332859448070019e+16,4.411687568082606e+16,54681583469755.97,56408937481.52906,268098520841.71545,8249460190084.487,165981690985345.03,559043958022404.25
7887.469567994424,4.3328737319903416e+16,4.418063071787635e+16,54681763735582.82,57408778250.12897,272850531253.72504,8609980675073.049,173235467325475.75,615035926927335.1
8677.216524793868,4.332887389994676e+16,4.4249645303947e+16,54681936102229.516,58253889800.19806,276867149760.4316,8954754144126.828,180172408504591.44,676627184209731.8
9545.938177273256,4.332900281259718e+16,4.432440271817549e+16,54682098792478.59,58952050531.541565,280185345270.683,9280217022292.002,186720814455624.1,744377637912114.5
10501.531995000581,4.3329122788124664e+16,4.4405449744573464e+16,54682250203906.2,59514803792.79778,282859980619.1122,9583154149030.447,192815995328960.3,818903181982420.2
11552.68519450064,4.332923275594121e+16,4.44934055739266e+16,54682388985409.62,59956608518.111145,284959775740.9747,9860852512104.668,198403364655974.03,900881295447697.5
12708.953713950705,4.332933190003728e+16,4.458897098359973e+16,54682514107169.414,60293808657.82272,286562409616.9321,10111241903943.875,203441269387934.9,991057201945154.6
13980.849085345777,4.332941970391072e+16,4.4692937562007096e+16,54682624917349.62,60543529115.35584,287749272918.592,10333009026397.729,207903285708409.16,1090250645642259.2
15379.933993880357,4.332949597982365e+16,4.480619675794609e+16,54682721179021.65,60722616229.49325,288600432367.58075,10525671933675.246,211779716839007.16,1199363345122112.5
16918.927393268394,4.332956087811163e+16,4.4929748589258456e+16,54682803081911.72,60846732011.00295,289190325852.88745,10689603944906.273,215078074160696.56,1319387192901469.5
18611.820132595236,4.3329614873927976e+16,4.506470994274417e+16,54682871225672.51,60929684210.20076,289584578397.48334,10826000383332.314,217822407992440.97,1451413274952170.8
20474.00214585476,4.332965873115189e+16,4.521232253219846e+16,54682926574334.24,60983034159.46929,289838138324.45917,10936787438667.744,220051473873724.62,1596641791987306.5
22522.40236044024,4.33296934459238e+16,4.537396073887922e+16,54682970385045.36,61015979822.53609,289994721416.789,11024479399260.66,221815860034967.22,1756392972434824.8
24775.642596484264,4.3329720174983736e+16,4.555113971532012e+16,54683004117633.99,61035472214.09407,290087364232.068,11091997370873.219,223174339969696.12,1932119076041691.2
27254.206856132692,4.3329740156154504e+16,4.574552426129717e+16,54683029334256.64,61046497185.27666,290139763362.80615,11142468086799.447,224189824440166.0,2125417597020730.5
29980.627541745966,4.332975462945225e+16,4.59589390537122e+16,54683047599837.15,61052445374.76123,290168033727.6207,11179024295699.031,224925345227860.72,2338045786657425.0
32979.69029592056,4.332976476754502e+16,4.6193380798995016e+16,54683060394305.68,61055499973.89651,290168101616.95935,11204627685980.85,225440492325900.56,2571936627442199.5
36278.65932551262,4.332977161938624e+16,4.645103289246993e+16,54683069041461.26,61055509628.71209,290168147500.03986,11221931274386.78,225788645162188.06,2829216403948430.0
39907.525258063884,4.33297760787089e+16,4.673428280103881e+16,54683074669212.36,61055515912.2695,290168177361.7154,11233191391677.201,226015201729305.78,3112224030846506.5
43899.277783870275,4.332977886722199e+16,4.7045742559745224e+16,54683078188369.586,61055519841.51679,290168196034.88184,11240231264794.65,226156845849715.88,3423532313504484.5
48290.20556225731,4.332978053892575e+16,4.738827236675962e+16,54683080298092.055,61055522197.0868,290168207229.37946,11244450506851.678,226241738118360.03,3765971335181175.0
53120.22611848305,4.332978149762865e+16,4.776500725757784e+16,54683081507993.56,61055523547.97911,290168213649.2951,11246869160976.695,226290402077941.78,4142654183465121.5
58433.24873033136,4.33297820224827e+16,4.817938679418981e+16,54683082170369.49,61055524287.542175,290168217163.9596,11248192279257.525,226317023565614.1,4557005249950392.0
64277.57360336451,4.3329782307383816e+16,4.863518705736281e+16,54683082529920.234,61055524688.99163,290168219071.7878,11248192353121.703,226330889805418.44,5012791361546753.0
70706.33096370097,4.332978253815931e+16,4.913655195841811e+16,54683082821163.3,61055525014.17364,290168220617.167,11248192412948.994,226330890994985.5,5514156030284027.0
77777.96406007107,4.332978254350375e+16,4.968805301219843e+16,54683082827908.13,61055525021.70439,290168220652.95636,11248192414334.549,226330891022523.16,6065657078684214.0
85556.76046607818,4.332978254450651e+16,5.029470409145325e+16,54683082829173.69,61055525023.117386,290168220659.6712,11248192414594.486,226330891027689.78,6672308156929549.0
94113.436512686,4.332978254552628e+16,5.096202018804165e+16,54683082830460.516,61055525024.55427,290168220666.4999,11248192414858.814,226330891032944.12,7339624252491404.0
103525.78016395462,4.332978254664675e+16,5.169606778477622e+16,54683082831874.58,61055525026.13289,290168220674.0026,11248192415149.299,226330891038717.38,8073671848098042.0
113879.3581803501,4.332978254787913e+16,5.250352000867539e+16,54683082833429.9,61055525027.86965,290168220682.2556,11248192415468.797,226330891045067.2,8881124070756591.0
125268.29399838512,4.332978254923484e+16,5.339171729462899e+16,54683082835140.836,61055525029.77989,290168220691.33386,11248192415820.256,226330891052052.25,9769321355345446.0
137796.12339822366,4.332978255072612e+16,5.4368734115172e+16,54683082837022.84,61055525031.8812,290168220701.3196,11248192416206.857,226330891059736.1,1.07463381743872e+16
151576.73573804603,4.332978255236642e+16,5.544345238302213e+16,54683082839093.0,61055525034.19262,290168220712.30426,11248192416632.09,226330891068187.9,1.1821056440585978e+16
166735.40931185064,4.332978255417086e+16,5.662564219361328e+16,54683082841370.23,61055525036.7351,290168220724.3877,11248192417099.887,226330891077485.22,1.3003246249360622e+16
183409.95024303574,4.332978255615576e+16,5.792605064157027e+16,54683082843875.1,61055525039.53198,290168220737.6792,11248192417614.46,226330891087712.1,1.430365469531954e+16
201751.94526733932,4.332978255833901e+16,5.935649951845424e+16,54683082846630.42,61055525042.60857,290168220752.2996,11248192418180.477,226330891098962.16,1.5734103570005732e+16
221928.13979407327,4.332978256074075e+16,6.092999277982599e+16,54683082849661.414,61055525045.99266,290168220768.3822,11248192418803.08,226330891111336.6,1.7307596828959678e+16
244121.9537734806,4.3329782563382536e+16,6.2660834758462e+16,54683082852995.5,61055525049.71527,290168220786.07306,11248192419487.975,226330891124948.66,1.9038438804936156e+16
268535.1491508287,4.332978256628854e+16,6.456476019822566e+16,54683082856662.93,61055525053.810005,290168220805.5332,11248192420241.354,226330891139922.12,2.0942364241774476e+16
295389.6640659116,4.332978256948515e+16,6.66590772905158e+16,54683082860697.08,61055525058.314285,290168220826.9391,11248192421070.049,226330891156392.78,2.303668133084657e+16
324929.6304725028,4.332978257300147e+16,6.8962825013381016e+16,54683082865134.68,61055525063.26905,290168220850.48584,11248192421981.615,226330891174510.47,2.5340429050171976e+16
357423.5935197531,4.332978257686936e+16,7.149694620336198e+16,54683082870016.08,61055525068.7191,290168220876.3876,11248192422984.346,226330891194439.53,2.787455023625919e+16
393166.95287172846,4.332978258112403e+16,7.428447793308538e+16,54683082875385.65,61055525074.71438,290168220904.87854,11248192424087.35,226330891216362.5,3.0662081961699564e+16
432484.6481589014,4.332978258580418e+16,7.735076092488328e+16,54683082881292.125,61055525081.309135,290168220936.2184,11248192425300.66,226330891240476.38,3.372836494878594e+16
475734.11297479155,4.332978259095233e+16,8.072366990367554e+16,54683082887789.15,61055525088.56332,290168220970.69354,11248192426635.303,226330891267002.88,3.710127392239571e+16
523308.52427227073,4.332978259661534e+16,8.443386698260538e+16,54683082894935.88,61055525096.54292,290168221008.615,11248192428103.389,226330891296181.47,4.081147099562477e+16
575640.3766994978,4.332978260284469e+16,8.851508038416322e+16,54683082902797.44,61055525105.32049,290168221050.32904,11248192429718.303,226330891328277.94,4.489268439091177e+16
