t(s),Total solute volume 1,Total retention volume 1,Total 1 volume 1,Total 2 volume 1,Total 3 volume 1,Total 4 volume 1,Total 5 volume 1,Total 6 volume 1
1.0,6001589538975889.0,7389411629985778.0,1387822091009903.8,0.0,0.0,0.0,0.0,0.0
2.1,9178013579342170.0,1.1369402031350912e+16,2122249497915720.0,210409974363.821,3224811665308.722,17916452132723.027,39801303678333.01,7985976642288.092
3.3100000000000005,1.169720986929364e+16,1.4585791425447664e+16,2704716222676343.0,563059213873.5409,8599591139086.267,47217064165218.516,106171146124168.92,21314472835333.496
4.641000000000001,1.3914402898846496e+16,1.747364035309199e+16,3217357764616813.0,1055590153876.419,16087228045631.635,87178471773470.22,197824685489072.62,39733714166667.24
6.105100000000002,1.5961153687329684e+16,2.019614509474434e+16,3690591419025154.5,1697598214648.5435,25832019360356.32,138062245040039.94,315426071602914.8,63382054171490.23
7.7156100000000025,1.7902655871876612e+16,2.2836209314748756e+16,4139490182921532.0,2504538038135.791,38066164887289.57,200558425686188.38,460387237421252.25,92546893917744.48
9.487171000000004,1.977655846783e+16,2.5443944907912028e+16,4572758738775416.0,3496203728652.3726,53087079056452.88,275696712606846.3,634714068925074.6,127633636989556.36
11.435888100000005,2.1606646532603372e+16,2.8053511378503988e+16,4995896391079609.0,4696313273628.479,71251157498384.3,364824541432156.1,841026644310742.0,169169798306037.8
13.579476910000007,2.340877608195343e+16,3.069044665884451e+16,5412569203419596.0,6132489548071.999,92973428502486.08,469590163729719.44,1082593175473253.0,217812116217955.12
15.937424601000009,2.5193842959395428e+16,3.3375330841864756e+16,5825296403953665.0,7836430619217.666,118730041313191.9,591927039566437.4,1363347430438110.0,274350536578685.6
18.53116706110001,2.696942301866229e+16,3.6125815707049656e+16,6235829606455143.0,9844191369077.674,149062449088790.6,734047468689975.2,1687898276497036.5,339710696287352.94
21.384283767210015,2.8740738555450804e+16,3.895784734866483e+16,6645376260908918.0,12196538959430.98,184582727754472.53,898449819864337.8,2061545742388998.2,414957703337919.6
24.522712143931017,3.0511251506455932e+16,4.188645949635098e+16,7054736810457254.0,14939360721019.723,225979704818660.8,1087937976239387.9,2490311408551136.5,501302729107652.0
27.97498335832412,3.2283038519085496e+16,4.492632588121265e+16,7464391414300962.0,18124111141523.293,274025695834988.47,1305649198954526.8,2980984304129370.5,600112637765741.4
31.772481694156536,3.4057034381362036e+16,4.809217264807432e+16,7874556233540150.0,21808288777723.74,329583712788611.2,1555087180452712.0,3541180539166334.0,712922311986747.9
35.949729863572195,3.5833194185391516e+16,5.1399108423783656e+16,8285220926884787.0,26055935599301.11,393615036715059.56,1840158511688130.8,4179414549321491.0,841449278183317.6
40.544702849929415,3.761060458308783e+16,5.48629067831135e+16,8696174375537300.0,30938151552999.883,467187052247666.7,2165211877080143.8,4905180389423380.0,987610354184083.9
45.59917313492236,3.938756319906778e+16,5.850026320635405e+16,9107023045235996.0,36533616774170.305,551481236614295.4,2535079816234207.0,5729042123639903.0,1153540168787717.2
51.1590904484146,4.11616388032288e+16,6.2329041348323896e+16,9517204899228478.0,42929113330235.97,647801187162290.4,2955123058143407.0,6662732795816678.0,1341611491413879.0
57.27499949325607,4.292972107182152e+16,6.636851912021375e+16,9926000903401602.0,50220037957287.18,757580564280519.9,3431277447566854.5,7719261731693565.0,1554457363492185.5
64.00249944258168,4.468803934131156e+16,7.063964247396716e+16,1.033253935671937e+16,58510861432482.44,882390173490487.1,3970077104275274.5,8913076381935241.0,1795009254802710.5
71.40274938683986,4.643231349423857e+16,7.51652931039853e+16,1.0735830794868594e+16,67915729653531.14,1023947776121369.6,4578800629033256.0,1.0260012947824746e+16,2066471732245275.8
79.54302432552385,4.815765916264261e+16,7.997057523892816e+16,1.1134746042280062e+16,78558719547624.25,1184121722855184.0,5265399308732033.0,1.177767095843908e+16,2372419324431655.5
88.49732675807624,4.985874050805039e+16,8.508312605102392e+16,1.1528051550604338e+16,90574348278202.5,1364939429145007.0,6038627722092180.0,1.3485406318016488e+16,2716786174837341.0
98.34705943388387,5.152982602260728e+16,9.05334537507939e+16,1.1914422292714692e+16,104107918875803.69,1568592976043820.5,6908090145296834.0,1.5404509556019442e+16,3103904839235939.0
109.18176537727226,5.3164874341226024e+16,9.63553070629478e+16,1.229246159782906e+16,119315852710825.06,1797444585756835.2,7884300720500655.0,1.7558368405594966e+16,3538541559329438.0
121.09994191499949,5.475763793077043e+16,1.0258607946150035e+17,1.2660725119628306e+16,136366008438036.12,2054031886146817.8,8978748313846471.0,1.997263716738685e+16,4025933035283261.5
134.20993610649944,5.63017834079054e+16,1.0926725124653835e+17,1.3017748648531762e+16,155438008395967.06,2341073234277931.5,1.0203964474188584e+16,2.2675417478063816e+16,4571825995174958.0
148.6309297171494,5.7791028042610184e+16,1.1644487223651504e+17,1.3362079665956824e+16,176723607186914.56,2661473577675481.0,1.1573595032303342e+16,2.5697452245904612e+16,5182520064877612.0
164.49402268886433,5.92192909049949e+16,1.241700875076346e+17,1.3692312284329284e+16,200427150148532.7,3018331524351653.0,1.3102476297808878e+16,2.907233485663981e+16,5864914489361587.0
181.94342495775078,6.058085565738885e+16,1.3249970823545306e+17,1.4007124880120928e+16,226766182518173.56,3414948490126217.0,1.4806717207196658e+16,3.2836736410255404e+16,6626559407846997.0
201.13776745352587,6.1870540391923144e+16,1.4149682930214314e+17,1.4305319356909714e+16,255972282144453.2,3854840979655771.5,1.6703789274178404e+16,3.7030654463741144e+16,7475712553590465.0
222.25154419887846,6.308386826008601e+16,1.512314949639842e+17,1.4585860593113074e+16,288292197768539.4,4341757209320392.5,1.8812626772284984e+16,4.169768750439779e+16,8421402427013522.0
245.47669861876633,6.421723107830968e+16,1.617814135856133e+17,1.4847914267760578e+16,323989378946543.6,4879699362521007.0,2.1153740210356624e+16,4.688534011847658e+16,9473499169242436.0
271.024368480643,6.5268036818411736e+16,1.7323272231860138e+17,1.509088096272125e+16,363345980231804.6,5472952744312018.0,2.3749346799679108e+16,5.264536448463736e+16,1.0642794528608074e+16
299.1268053287073,6.623483113978779e+16,1.8568080272678083e+17,1.531442426577672e+16,406665409134378.2,6126122937805494.0,2.662352219239859e+16,5.903414433249034e+16,1.1941092449387892e+16
330.03948586157804,6.711738314270285e+16,1.9923114884150685e+17,1.5518490603887214e+16,454275463245941.9,6844181734386510.0,2.9802378210259444e+16,6.611312778300576e+16,1.3381311904019422e+16
364.0434344477359,6.791672654375309e+16,2.1400029006039462e+17,1.5703318771958372e+16,506532066771935.06,7632522107878461.0,3.331427148308091e+16,7.394931546261258e+16,1.497760362433928e+16
401.44777789250946,6.863514963935641e+16,2.301167727461658e+17,1.586943762265769e+16,563823572521097.6,8497021852750645.0,3.719004778061276e+16,8.261580991969941e+16,1.6745482358567978e+16
442.5925556817604,6.92761307323299e+16,2.477222063442504e+17,1.6017651147712202e+16,626575546424624.6,9444114766885142.0,4.146332627493014e+16,9.219243168149464e+16,1.8701976194473668e+16
487.8518112499365,6.984421995606485e+16,2.6697238224321597e+17,1.6149011165791118e+16,695255904284736.6,1.0480867523526852e+16,4.617082698970792e+16,1.027664063389726e+17,2.0865794364867788e+16
537.6369923749302,7.034487322580681e+16,2.8803847627783792e+17,1.6264778940696134e+16,770380232394731.2,1.16150597617863e+16,5.1352743333223016e+16,1.1443312596165131e+17,2.325751482227934e+16
592.4006916124232,7.078424876521476e+16,3.11108348452759e+17,1.6366378144688826e+16,852517102451756.6,1.2855264549119998e+16,5.705316002665725e+16,1.2729698708661186e+17,2.5899792778014544e+16
652.6407607736655,7.116898057388732e+16,3.3638795581085843e+17,1.6455342487784962e+16,942293192171548.6,1.4210926322752272e+16,6.332051517349226e+16,1.4147230666861048e+17,2.8817591392160476e+16
718.9048368510321,7.150595414850965e+16,3.6410289582416794e+17,1.6533263866538846e+16,1040398172213851.4,1.5692435945391992e+16,7.02081999837723e+16,1.5708440949166326e+17,3.203823421607782e+16
791.7953205361354,7.180204836289918e+16,3.94500099349896e+17,1.6601732678323238e+16,1147588469198216.8,1.7311187154660996e+16,7.777467018676762e+16,1.7427035915860986e+17,3.5592513339437436e+16
871.9748525897489,7.20639967699714e+16,4.278496903586256e+17,1.6662305760425896e+16,1264691801296003.2,1.9079648602488684e+16,8.608475977467786e+16,1.931805555866412e+17,3.951373206312536e+16
960.1723378487239,7.229819273617037e+16,4.644470286516482e+17,1.6716461323606654e+16,1392609857252052.5,2.101140354112361e+16,9.520972238419141e+16,2.1397977098072995e+17,4.383886782857452e+16
1057.1895716335964,7.25105845708056e+16,5.0461494991417446e+17,1.676557470101859e+16,1532321039969899.2,2.312119233026951e+16,1.0522804438457522e+17,2.3684846357258506e+17,4.860876931495085e+16
1163.9085287969563,7.270661095584704e+16,5.4870621439263264e+17,1.681090341305669e+16,1684882640618238.2,2.5424945676607124e+16,1.1622612807014086e+17,2.6198420115766867e+17,5.3868542478693896e+16
1281.299381676652,7.289117928384882e+16,5.971061722433981e+17,1.6853582152924766e+16,1851432540615156.5,2.793981031250135e+16,1.2829900797529949e+17,2.89603163751529e+17,5.966799622667951e+16
1410.4293198443174,7.306868056602606e+16,6.502356507068897e+17,1.6894626228134668e+16,2033190429763592.5,3.068416696888439e+16,1.4155111198509824e+17,3.199417380835975e+17,6.6062136445384856e+16
1552.4722518287492,7.324303217691634e+16,7.085540657830591e+17,1.6934941438977102e+16,2231458461553831.2,3.3677639488276624e+16,1.5609707258089805e+17,3.53258207710823e+17,7.311171392561418e+16
1708.7194770116243,7.341773916775584e+16,7.72562758929542e+17,1.6975338251269948e+16,2447621191627380.0,3.694109279892797e+16,1.720625938281172e+17,3.898345397003814e+17,8.088383399146309e+16
1880.5914247127869,7.359596566409317e+16,8.428085572762767e+17,1.701654830166632e+16,2683144568865648.0,4.049661631443764e+16,1.895853790982447e+17,4.299782664708738e+17,8.945263685809589e+16
2069.6505671840655,7.378060947088382e+16,9.198875536572708e+17,1.705924164543689e+16,2939573677324803.5,4.436748823791551e+16,2.088161231176747e+17,4.7402445838839814e+17,9.890005911963722e+16
2277.615623902472,7.397437495538896e+16,1.0044491000561427e+18,1.7104043606770324e+16,3218528865494734.5,4.8578115302178344e+16,2.2991956997616154e+17,5.223377789220661e+17,1.0931668842808357e+17
2506.3771862927197,7.417984117137589e+16,1.0972000045080803e+18,1.715155052934321e+16,3521699848742188.5,5.315394169558927e+16,2.5307563632338954e+17,5.7531460948777837e+17,1.2080272545186067e+17
2758.0149049219917,7.439952377500448e+16,1.1989089168062423e+18,1.7202344091828388e+16,3850837331416591.5,5.81213203114818e+16,2.784805961436662e+17,6.333852254437202e+17,1.3346906970912645e+17
3034.816395414191,7.463593045326056e+16,1.310410882300283e+18,1.7257004123655106e+16,4207741666954916.5,6.350733901945612e+16,3.06348320133667e+17,6.970159979092801e+17,1.4743854899401136e+17
3339.2980349556105,7.489161033997906e+16,1.432612035485079e+18,1.7316120030741248e+16,4594248058553017.0,6.9339594406935704e+16,3.369115586318596e+17,7.667115879995395e+17,1.6284731601747235e+17
3674.227838451172,7.516919829852829e+16,1.5664943958479199e+18,1.7380301034359456e+16,5012207802672902.0,7.564590542568235e+16,3.704232520008279e+17,8.430170905345425e+17,1.7984644075130566e+17
4042.6506222962894,7.547145509549643e+16,1.713120717501642e+18,1.7450185459908818e+16,5463465098256239.0,8.24539596815568e+16,4.071578460278991e+17,9.265200731604668e+17,1.9860373297805693e+17
4447.915684525919,7.580130446454442e+16,1.8736393314511521e+18,1.7526449306560722e+16,5949828993793871.0,8.979088584292045e+16,4.474125819286725e+17,1.017852444057942e+18,2.1930583685671923e+17
4893.707252978511,7.61618679343191e+16,2.0492889049434788e+18,1.7609814299791748e+16,6473040132239481.0,9.768274696168922e+16,4.9150872054174656e+17,1.117692067126334e+18,2.4216064794735786e+17
5384.077978276362,7.655649811714566e+16,2.2414030263346086e+18,1.7701055587859738e+16,7034732091735185.0,1.0615395157491819e+17,5.397926479530025e+17,1.2267640281181332e+18,2.6740011289181424e+17
5923.485776103998,7.698881095474946e+16,2.451414506476377e+18,1.7801009196926706e+16,7636387320939445.0,1.1522658247513896e+17,5.926367948658673e+17,1.345841439475902e+18,2.952834821868538e+17
6516.834353714399,7.746271720805773e+16,2.680859269143935e+18,1.7910579311162688e+16,8279287944487355.0,1.2491964720230331e+17,6.504402845993898e+17,1.4757456569862285e+18,3.2610109589230515e+17
7169.5177890858395,7.798245326754314e+16,2.9313796840563666e+18,1.80307453954702e+16,8964462079242738.0,1.352482598098517e+17,7.136292052356024e+17,1.617345769851405e+18,3.6017878841725344e+17
7887.469567994424,7.855261115530414e+16,3.2047271774203325e+18,1.816256913100776e+16,9692626766175838.0,1.462227704591025e+17,7.826563816093075e+17,1.771557220038485e+18,3.978829982609496e+17
8677.216524793868,7.917816740238995e+16,3.5027639377978317e+18,1.830720109029539e+16,1.046412919326202e+16,1.578478680224005e+17,8.580005052257674e+17,1.9393394100938406e+18,4.396266567698705e+17
9545.938177273256,7.986450864120822e+16,3.827463522473189e+18,1.8465886652214984e+16,1.1278888323377068e+16,1.701216870432377e+17,9.401642623384356e+17,2.1216896881914414e+18,4.8587860128326944e+17
10501.531995000581,8.061746192335062e+16,4.1809101534735805e+18,1.863997301005098e+16,1.2136341244014708e+16,1.8303498684007053e+17,1.0296723585778856e+18,2.3196455841596083e+18,5.371634477185909e+17
11552.68519450064,8.144331048429422e+16,4.5652965036908744e+18,1.8830912812754468e+16,1.3035395672124704e+16,1.965704188885747e+17,1.1270669260319679e+18,2.5342690072112983e+18,5.94080532589856e+17
12708.953713950705,8.234881588394834e+16,4.982919768769122e+18,1.9040269281423844e+16,1.3974396352080636e+16,2.107020066414134e+17,1.2329030247726927e+18,2.7666427873755986e+18,6.573084684619758e+17
13980.849085345777,8.334123219408357e+16,5.436175848229399e+18,1.926971948612792e+16,1.4951109164732528e+16,2.253948917078889e+17,1.3477422020741627e+18,3.017858755326089e+18,7.276179382763132e+17
15379.933993880357,8.442831603148171e+16,5.927551496807448e+18,1.952105666225107e+16,1.5962729758423576e+16,2.406054520677003e+17,1.472144693478346e+18,3.2890042672102415e+18,8.058849815990011e+17
16918.927393268394,8.561832941266853e+16,6.459614369804456e+18,1.979619086707409e+16,1.7005922718805754e+16,2.562818839554891e+17,1.6066598585139546e+18,3.5811418992379146e+18,8.931102850985522e+17
18318.012301802974,8.66961652863247e+16,6.936523511678923e+18,2.0045388811082636e+16,1.7902838320572802e+16,2.6975254626868557e+17,1.7272765183852485e+18,3.8418561605163244e+18,9.729938940906903e+17
19589.907673198046,8.76745246910672e+16,7.364607737353676e+18,2.027158718590048e+16,1.867886836167937e+16,2.8140147435581114e+17,1.835534876431375e+18,4.0748135176618947e+18,1.0462328886659538e+18
20988.992581732626,8.874769848113506e+16,7.829052972182495e+18,2.051970630011808e+16,1.9486932799416532e+16,2.9352405982466605e+17,1.9526162235976087e+18,4.3261445983388104e+18,1.1280137528407397e+18
22260.887953127698,8.97205214947995e+16,8.246079362401441e+18,2.074462377280611e+16,2.0187459658059736e+16,3.0402736488954534e+17,2.0576573521722893e+18,4.5508639313116447e+18,1.2028781091022815e+18
23417.156472577764,9.060332075566678e+16,8.620993164717532e+18,2.094872735693972e+16,2.0798023014608876e+16,3.131769558168074e+17,2.1519975269670147e+18,4.752015259652916e+18,1.2714533511535752e+18
24689.051843972837,9.157073005611752e+16,9.028433632623803e+18,2.117239235529044e+16,2.143882920046862e+16,3.227738632623962e+17,2.2540817519352888e+18,4.969411660448159e+18,1.3479844053660846e+18
25845.320363422903,9.244750785384286e+16,9.394821957555868e+18,2.137510302538471e+16,2.199825862760418e+16,3.3114737807563046e+17,2.3457565500434263e+18,5.164151697462451e+18,1.4179454624675328e+18
26896.47356292296,9.324290288773787e+16,9.724651536998658e+18,2.1558997787325296e+16,2.248892195058523e+16,3.384878760891093e+17,2.4281708805067397e+18,5.338743600393406e+18,1.481958357383758e+18
28052.742082373028,9.411409680338574e+16,1.008361388112371e+19,2.1760416802534736e+16,2.300741275481167e+16,3.462399790670014e+17,2.5174205538723113e+18,5.527722395670083e+18,1.5533490261535997e+18
29103.895281873087,9.490364803933334e+16,1.040682469119249e+19,2.1942959877082492e+16,2.346280363770832e+16,3.530450808332425e+17,2.5976555404274514e+18,5.697284742850331e+18,1.6185299155273341e+18
30059.489099600414,9.561983102753411e+16,1.0698120954677834e+19,2.210854014031168e+16,2.386438333107136e+16,3.590432341118733e+17,2.669858779908961e+18,5.849517901766168e+18,1.6781082843919206e+18
31110.642299100473,9.64041325375378e+16,1.101554207570876e+19,2.2289868962758984e+16,2.4291228632047604e+16,3.6541504766595034e+17,2.7481185105122755e+18,6.014516349372694e+18,1.7445069380254907e+18
32066.2361168278,9.711497782118432e+16,1.1301667968887718e+19,2.2454214677391976e+16,2.4668066873534044e+16,3.7103765428271706e+17,2.8185479903584077e+18,6.162777691184514e+18,1.80506737368998e+18
32934.95776930719,9.775975714179573e+16,1.15597991038394e+19,2.260328596917043e+16,2.5001906844923852e+16,3.7601658271252166e+17,2.881989939400891e+18,6.296055569959925e+18,1.8603720618101893e+18
33890.55158703452,9.84658733542721e+16,1.1841385128812958e+19,2.2766537925428812e+16,2.5358520440514572e+16,3.813322401172752e+17,2.950814963131725e+18,6.440681929349266e+18,1.9219650644944755e+18
34759.2732395139,9.91059249040804e+16,1.209545497315817e+19,2.291451579031177e+16,2.5674732480965468e+16,3.860436189567212e+17,3.0128154641522463e+18,6.570806020795406e+18,1.978094696078465e+18
35714.86705724123,9.980644877469797e+16,1.2372652284898275e+19,2.3076474400985228e+16,2.6012873217237124e+16,3.910789241964801e+17,3.0800838389469025e+18,6.712048359268826e+18,2.040545366093168e+18
36583.588709720614,1.0044131134358483e+17,1.2622796420810662e+19,2.3223252236003252e+16,2.631304283200026e+16,3.9554692371739366e+17,3.140704430813564e+18,6.839151594377688e+18,2.0974158654904384e+18
37373.335666520055,1.0101716741074586e+17,1.2848690489688668e+19,2.3356387916542444e+16,2.6580290114331544e+16,3.995234553326233e+17,3.1953747835897216e+18,6.953543048979633e+18,2.1492953563450644e+18
38242.05731899945,1.01647823808922e+17,1.3095375809228294e+19,2.350219302139508e+16,2.686730807355625e+16,4.0379202503968576e+17,3.2547297215235497e+18,7.077796755308511e+18,2.207039982452673e+18
39031.80427579889,1.0221957759359936e+17,1.331817060653867e+19,2.3634380002459028e+16,2.7123033793305356e+16,4.075938021524867e+17,3.308256689728624e+18,7.189733174298757e+18,2.2596099489694413e+18
39900.52592827828,1.0284543030179587e+17,1.356150064481964e+19,2.3779074216033372e+16,2.7397898608165284e+16,4.1167803571854816e+17,3.366377989653529e+18,7.311362369271126e+18,2.3180598470504105e+18
40690.27288507772,1.0341270808707144e+17,1.3781289158822054e+19,2.3910226106892716e+16,2.7643006471419844e+16,4.153188246816733e+17,3.418812137008845e+18,7.420955668373945e+18,2.3712365880922327e+18
41408.22466398631,1.0392729671228843e+17,1.3979938049270252e+19,2.402919647736434e+16,2.7862112293615212e+16,4.185724353106779e+17,3.466146242828172e+18,7.51969487430322e+18,2.4197058913449636e+18
42197.97162078575,1.0449092001412386e+17,1.4197069406430405e+19,2.415950327147999e+16,2.809844839011552e+16,4.220803263639734e+17,3.5175740113097825e+18,7.627042396293499e+18,2.473623800787418e+18
42915.92339969434,1.0500196894968934e+17,1.4393333897048054e+19,2.427765508826313e+16,2.8309824360529096e+16,4.2521677433686534e+17,3.563996011718282e+18,7.723857301077774e+18,2.522674361516643e+18
