t(s),Total solute volume 1,Total retention volume 1,Total 1 volume 1,Total 2 volume 1,Total 3 volume 1,Total 4 volume 1,Total 5 volume 1,Total 6 volume 1
1.0,3333434500519202.0,3351729361711353.0,18294861192158.418,0.0,0.0,0.0,0.0,0.0
2.1,4176797993235536.0,5743097553629831.0,22923481464408.855,132906994537.96385,929773395966.6418,31582038198207.91,768177074323839.4,742554286017321.1
3.3100000000000005,4562338486130948.0,8120359654239653.0,25039438393342.54,304821077337.44116,2132426267357.9856,72435996535460.3,1760614201512752.0,1697494284322451.8
4.641000000000001,4775556938165510.0,1.0632125944990234e+16,26209642910370.625,502825707920.8511,3517602597389.579,119503158320318.34,2905206087402645.0,2801629689886123.0
6.105100000000002,4905920243996596.0,1.3341364444559912e+16,26925114670614.145,724131601696.5536,5065790409551.364,172125297904306.9,4186530438240153.5,4044073427737008.0
7.7156100000000025,4991244675688408.0,1.628950486759577e+16,27393400120665.78,968944923073.7423,6778431915770.494,230354385640020.8,5605785513103877.0,5426979516203957.0
9.487171000000004,5050013189013877.0,1.951154780708596e+16,27715939001529.234,1238692286697.0417,8665507123878.866,294532917181127.56,7171135666168139.0,6958245896310716.0
11.435888100000005,5092144945573066.0,2.3041193131465412e+16,27947170520350.4,1535435820880.4468,10741442014994.59,365155520020379.3,8894476738637516.0,8649191878878263.0
13.579476910000007,5123341759067168.0,2.6913056643217124e+16,28118387875806.07,1861659692091.1008,13023615166140.666,442818481499545.6,1.0790227844198838e+16,1.0513664895717562e+16
15.937424601000009,5147068841093259.0,3.116384655202497e+16,28248609153330.805,2220195803962.8604,15531837964267.29,528202324271779.5,1.2874903387470492e+16,1.2567671356267802e+16
18.53116706110001,5165526163804611.0,3.5833124471194564e+16,28349908440108.887,2614202883458.898,18288208293650.0,622067102460482.1,1.51669885549419e+16,1.4829290330370366e+16
21.384283767210015,5180164658656938.0,4.096389133248648e+16,28430248871561.387,3047172832491.222,21317154974208.426,725254257037744.8,1.7686977014453774e+16,1.7318700825659738e+16
24.522712143931017,5191972555817350.0,4.660310420220251e+16,28495054144276.676,3522949843512.2964,24645571499947.027,838691590605445.9,2.0457486382800396e+16,2.0058290097491476e+16
27.97498335832412,5201642011583756.0,5.280217546256236e+16,28548123015322.445,4045757283226.3643,28303004128709.004,963400190493792.6,2.3503422904524384e+16,2.3072813471533224e+16
31.772481694156536,5209669876560806.0,5.9617482110751096e+16,28592182347138.293,4620229967829.839,32321877697331.375,1100502753143694.5,2.6852181572196876e+16,2.6389593618837356e+16
35.949729863572195,5216420704628254.0,6.711090193017861e+16,28629232919030.918,5251450785332.3,36737751855955.086,1251233083751486.0,3.0533875798835684e+16,3.0038753907402924e+16
40.544702849929415,5222167325897368.0,7.535038797732483e+16,28660772103360.19,5944991245656.817,41589604789015.234,1416946698983759.5,3.458159460035399e+16,3.4053483983951696e+16
45.59917313492236,5227117663182407.0,8.441059023576093e+16,28687941042154.723,6706955841627.045,46920143606439.11,1599132538543741.8,3.903168722815847e+16,3.847033776538631e+16
51.1590904484146,5231432875576907.0,9.437353207757146e+16,28711624224362.348,7544030252355.985,52776141627222.49,1799425833771991.2,4.392407628425099e+16,4.332956528786772e+16
57.27499949325607,5235239896467647.0,1.0532934870283648e+17,28732518298142.574,8463533490863.346,59208803269885.15,2019622206570714.2,4.9302601002720776e+16,4.86754807420183e+16
64.00249944258168,5238640266740316.0,1.1737709468100824e+17,28751180550093.88,9473474124961.574,66274157455184.305,2261693088342606.5,5.521539280676427e+16,5.455686970703078e+16
71.40274938683986,5241716469695584.0,1.3062562792793274e+17,28768063673133.527,10582610700681.254,74033480428637.27,2527802560468959.0,6.171528555432754e+16,6.102743918863839e+16
79.54302432552385,5244536550420793.0,1.4519457782963706e+17,28783541118972.65,11800516477738.498,82553748772753.72,2820325727125944.5,6.886026311994317e+16,6.8146314625777496e+16
88.49732675807624,5247157537653321.0,1.61215405719138e+17,28797925878310.434,13137648549058.639,91908123117372.38,3141868738889615.0,7.671394715011178e+16,7.597858859493834e+16
98.34705943388387,5249628017306432.0,1.788325664969677e+17,28811484605104.668,14605421360838.646,102176462668866.67,3495290591982128.0,8.53461279848992e+16,8.459592653414483e+16
109.18176537727226,5251990097014889.0,1.9820478084272096e+17,28824448398579.37,16216284574097.467,113445870151596.47,3883726833208032.0,9.483334186107837e+16,9.407723544829555e+16
121.09994191499949,5254280928370707.0,2.1950642818275766e+17,28837021157704.777,17983805110020.117,125811266066036.56,4310615304452745.0,1.0525949759835662e+17,1.0450940225924437e+17
134.20993610649944,5256533904618404.0,2.429290713503213e+17,28849386154503.543,19922753095581.43,139375990289180.34,4779724062735723.0,1.16716556012094e+17,1.15988109241334e+17
148.6309297171494,5258779618181187.0,2.6868312469204467e+17,28861711289238.78,22049191268009.426,154252427939524.22,5295181611754522.0,1.2930526528171955e+17,1.2861873484989315e+17
164.49402268886433,5261046639261124.0,2.96999678232474e+17,28874153363601.902,24380567200845.03,170562655060911.88,5861509578000772.0,1.4313595541848774e+17,1.4251734922109886e+17
181.94342495775078,5263362160529276.0,3.281324913981735e+17,28886861618963.242,26935807474075.895,188439098000542.66,6483657958097622.0,1.5832939479986947e+17,1.578118147125837e+17
201.13776745352587,5265752541399734.0,3.623601707161352e+17,28899980723508.023,29735412618648.883,208025198314703.03,7167043053036422.0,1.7501771144685894e+17,1.7464300308318323e+17
222.25154419887846,5268243777106011.0,3.999885468259425e+17,28913653346667.48,32801551313442.047,229476072574120.53,7917588188308256.0,1.9334538128570035e+17,1.931661422975939e+17
245.47669861876633,5270861911789627.0,4.413532670672773e+17,28928022426269.44,36158151891683.39,252959153497598.16,8741767295116661.0,2.1347028502183702e+17,2.135523075107193e+17
271.024368480643,5273633410400450.0,4.8682262080579136e+17,28943233209637.723,39830988714601.766,278654795353069.9,9646651395224416.0,2.3556483441910067e+17,2.35990072563787e+17
299.1268053287073,5276585500937383.0,5.368006155189669e+17,28959435131908.184,43847760383421.62,306756822463857.06,1.0639957988493976e+16,2.5981716767110992e+17,2.6068734034044666e+17
330.03948586157804,5279746496100371.0,5.917303224524261e+17,28976783581349.734,48238156077714.93,337472994881908.06,1.173010328542749e+16,2.8643241211492416e+17,2.8787337262143382e+17
364.0434344477359,5283146101555007.0,6.520975113430452e+17,28995441591209.848,53033905520744.734,371025359784046.44,1.2926257154147028e+16,3.156340106992389e+17,3.1780104268120576e+17
401.44777789250946,5286815716560544.0,7.184345942496458e+17,29015581489648.633,58268807175065.77,407650450871618.25,1.4238400558952712e+16,3.476651062987136e+17,3.50749336835881e+17
442.5925556817604,5290788731562447.0,7.913248988884884e+17,29037386533011.848,63978728262120.414,447599290992656.9,1.5677385151967196e+16,3.827899750673076e+17,3.8702613453186355e+17
487.8518112499365,5295100826407945.0,8.714072919860078e+17,29061052542526.047,70201569081046.15,491137145380748.9,1.7254994535944106e+16,4.2129549643712864e+17,4.269713004195223e+17
537.6369923749302,5299790272039027.0,9.593811729742892e+17,29086789560073.945,76977182885394.9,538542964392184.5,1.8984006539942868e+16,4.6349264297025606e+17,4.709601262552133e+17
592.4006916124232,5304898237791583.0,1.0560118577970341e+18,29114823534742.54,84347241283759.44,590108445574638.0,2.0878255634447536e+16,5.0971796791839776e+17,5.1940716549600275e+17
652.6407607736655,5310469105737553.0,1.1621363715901896e+18,29145398048021.285,92355033797863.22,646136635570422.4,2.295269435212512e+16,5.603350618823921e+17,5.727705091825188e+17
718.9048368510321,5316550792801121.0,1.2786696674724055e+18,29178776081669.91,101045188895218.97,706939983133871.1,2.522345226763649e+16,6.157359422192815e+17,6.315565582445729e+17
791.7953205361354,5323195080624185.0,1.406611286543862e+18,29215241828112.37,110463302593350.55,772837745986084.6,2.7707890717007464e+16,6.763423296359622e+17,6.963253548198628e+17
871.9748525897489,5330457952303021.0,1.5470524713696259e+18,29255102538544.61,120655459719901.03,844152647116621.2,3.042465099596254e+16,7.426067555458177e+17,7.67696543666166e+17
960.1723378487239,5338399922689651.0,1.7011837419349094e+18,29298690335722.9,131667631973969.88,921206669531981.1,3.339369318605953e+16,8.150134290427625e+17,8.46356046791557e+17
1057.1895716335964,5347086427154270.0,1.8703029369861018e+18,29346364347603.43,143544938756604.7,1004315891154169.6,3.66363226550556e+16,8.940787913242804e+17,9.330635293853468e+17
1163.9085287969563,5356588095615055.0,2.055823722619703e+18,29398512211293.656,156330751732676.6,1093784226468783.5,4.017519911791492e+16,9.803516285001606e+17,1.0286607934155983e+18
1281.299381676652,5366981130100037.0,2.2592845586019822e+18,29455552145221.426,170065635187223.47,1189896019122620.8,4.4034324761797e+16,1.0744126597569651e+18,1.1340811757466636e+18
1410.4293198443174,5378347608951907.0,2.482358110208398e+18,29517934618696.34,184786108210345.66,1292907387363509.0,4.823900468021488e+16,1.1768734326218578e+18,1.2503601138671823e+18
1552.4722518287492,5390775774847332.0,2.7268610848430674e+18,29586143932641.406,200523225256846.7,1403036297647139.2,5.281577329329807e+16,1.288374371283437e+18,1.3786470188246408e+18
1708.7194770116243,5404360281380387.0,2.9947644658313375e+18,29660699572913.195,217300977077940.6,1520451379725197.5,5.779227890526586e+16,1.4095817863404746e+18,1.5202186272478372e+18
1880.5914247127869,5419202380732698.0,3.2882041093042903e+18,29742157240289.363,235134524222425.8,1645259567734798.0,6.319711749821029e+16,1.5411836297599286e+18,1.6764940234162232e+18
2069.6505671840655,5435410030588206.0,3.60949166508257e+18,29831109437245.688,254028288290889.9,1777492742500758.5,6.905960572157652e+16,1.6838837523649308e+18,1.8490515448252516e+18
2277.615623902472,5453097893257676.0,3.961125780175873e+18,29928185463152.55,273973942410670.03,1917093664037219.2,7.540948193251707e+16,1.8383943960840712e+18,2.0396478084741128e+18
2506.3771862927197,5472387193881544.0,4.3458035456443167e+18,30034050636051.152,294948362018058.06,2063901620370631.2,8.227652315691766e+16,2.0054266316242757e+18,2.2502391196362145e+18
2758.0149049219917,5493405397514808.0,4.766432156370434e+18,30149404520403.844,316911619680302.1,2217638377182808.0,8.969006509082792e+16,2.1856784371424635e+18,2.4830055493382574e+18
3034.816395414191,5516285656846591.0,5.22614077167058e+18,30274977896024.016,339805132559940.6,2377895186808798.0,9.767841190506922e+16,2.3798201088510177e+18,2.740377989960371e+18
3339.2980349556105,5541165973329877.0,5.728292596282941e+18,30411528154118.727,363550096750434.1,2544121794601321.5,1.0626812285977216e+17,2.58847670545301e+18,3.0250685185773174e+18
3674.227838451172,5568188004778093.0,6.276497250566443e+18,30559832753041.637,388046366799179.6,2715618549584057.5,1.1548316384661254e+17,2.8122072613845263e+18,3.340104412581392e+18
4042.6506222962894,5597495442406933.0,6.87462357100498e+18,30720680311042.67,413171958033083.6,2891532861984918.0,1.2534391428564051e+17,3.051480567040528e+18,3.688866168736079e+18
4447.915684525919,5629231870523646.0,7.526813083335422e+18,30894858859638.316,438783359575920.5,3070861323072228.0,1.3586602370953728e+17,3.306647416955022e+18,4.07512987125884e+18
4893.707252978511,5663538013654816.0,8.237494527278771e+18,31083140735075.137,464716842096359.9,3252458777052960.5,1.470591183323777e+17,3.577909380053465e+18,4.503114232119381e+18
5384.077978276362,5700548270468509.0,9.011399990427212e+18,31286263555520.016,490790920753286.75,3435055471457658.0,1.589253664297866e+17,3.865284361113662e+18,4.977532581957528e+18
5923.485776103998,5740386433712409.0,9.853583435012745e+18,31504906730877.26,516810085105292.0,3617283073519145.0,1.7145792296948627e+17,4.168569510743515e+18,5.503650016800705e+18
6516.834353714399,5783160503769679.0,1.0769442678743587e+19,31739662998128.312,542569829776395.0,3797709796372024.5,1.8463928908782976e+17,4.48730241188235e+18,6.087345797980514e+18
7169.5177890858395,5828956524592210.0,1.1764746219634491e+19,31991004591202.76,567862910979152.2,3974884120092888.5,1.9843964101436896e+17,4.820721928965196e+18,6.735180955094709e+18
7887.469567994424,5877831410051698.0,1.2845666668794182e+19,32259243869982.406,592486617568598.6,4147385639141306.5,2.1281520590038582e+17,5.167730648224299e+18,7.454470851758841e+18
8677.216524793868,5929804792461573.0,1.4018822959704754e+19,32544488582704.89,616250690256350.8,4313880483003038.0,2.2770678818930355e+17,5.526861447885969e+18,8.253362243175185e+18
9545.938177273256,5984850019907126.0,1.5291333910947166e+19,32846592456788.55,638985365484406.9,4473177655969689.0,2.4303857837333565e+17,5.896251379909365e+18,9.140914093030675e+18
10501.531995000581,6042884561178079.0,1.6670886089862005e+19,33165102538413.81,660548885365535.8,4624281693420756.0,2.5871740381006157e+17,6.273626659220429e+18,1.0127181146588975e+19
11552.68519450064,6103760250062791.0,1.8165819198333102e+19,33499205650473.62,680833732124350.2,4766436446045342.0,2.74632604909018e+17,6.656303048723035e+18,1.12232990150672e+19
12708.953713950705,6167254012553986.0,1.9785232302433264e+19,33847677500873.074,699770846582013.6,4899154804046777.0,2.906567339750289e+17,7.041206169201617e+18,1.2441569371915956e+19
13980.849085345777,6233059959595399.0,2.153911406523429e+19,34208839285293.195,717331202515513.1,5022229950906454.0,3.0664727118184845e+17,7.424916088747093e+18,1.379554387535303e+19
15379.933993880357,6300783968561862.0,2.3438499623050666e+19,34580527948807.58,733524345584094.9,5135725385821952.0,3.224495241702982e+17,7.803739770443556e+18,1.5300105714208958e+19
16918.927393268394,6369942074360916.0,2.549565579011225e+19,34960087355752.023,748393857397074.5,5239943410427663.0,3.379008161000702e+17,8.173813398848879e+18,1.697154833573374e+19
18611.820132595236,6439964081337374.0,2.772429484611252e+19,35344388112802.56,762010132912786.1,5335374765860160.0,3.5283596499167494e+17,8.531234136773006e+18,1.8827652050979684e+19
20474.00214585476,6510203709583780.0,3.01398152907199e+19,35729883254679.414,774461293001557.1,5422635144344789.0,3.670939131295833e+17,8.872217475216668e+18,2.0887760872343503e+19
22522.40236044024,6579956221259213.0,3.275956578420565e+19,36112704982210.86,785843402235969.6,5502396745830835.0,3.805251860348551e+17,9.193272221701868e+18,2.3172864067394687e+19
24775.642596484264,6648483775373011.0,3.5603126314045768e+19,36488803816364.18,796251330945085.1,5575324246992931.0,3.9299966508291904e+17,9.491380786833383e+18,2.570568931397238e+19
27254.206856132692,6715047734440408.0,3.8692598847164735e+19,36854125906099.95,805771521430840.6,5642024012584636.0,4.044139791230759e+17,9.764168534950474e+18,2.8510816635696833e+19
29980.627541745966,6778945891836966.0,4.2052898846880915e+19,37204817342424.33,814477575268480.2,5703012993748629.0,4.146977029250265e+17,1.0010043557912916e+19,3.1614823944764776e+19
32979.69029592056,6839551320426687.0,4.571203953831076e+19,37537437370498.54,822429027055530.4,5758709907191139.0,4.2381754191320064e+17,1.0228288357254398e+19,3.5046475411451216e+19
36278.65932551262,6896348575862185.0,4.970140301793712e+19,37849157083524.984,829673032725326.9,5809446830427401.0,4.3177882084866496e+17,1.0419088363643494e+19,3.8836962515848905e+19
39907.525258063884,6948962662982868.0,5.405599621989319e+19,38137918398580.914,836248138491599.1,5855495407250028.0,4.386238885429311e+17,1.0583489136932897e+19,4.302020435029017e+19
43899.277783870275,6997176739917059.0,5.881469493622678e+19,38402531221909.13,842188958588275.6,5897099478936112.0,4.444274694664853e+17,1.0723283706575802e+19,4.763320889247586e+19
48290.20556225731,7040936023814735.0,6.402048467732102e+19,38642694884965.43,847530560632915.1,5934505735589304.0,4.492894604773646e+17,1.0840842102311406e+19,5.2716491499517256e+19
53120.22611848305,7080337520892735.0,6.972071202693013e+19,38858941780355.125,852311624387320.8,5967985837044426.0,4.5332608181764614e+17,1.0938904331077435e+19,5.831454212011094e+19
58433.24873033136,7115607532195371.0,7.5967363207962e+19,39052513907458.72,856575898803362.2,5997846658533382.0,4.5666054190017306e+17,1.1020363558901592e+19,6.447633002455659e+19
64277.57360336451,7147070793408609.0,8.281738712353227e+19,39225193503336.945,860371979196617.8,6024428793540463.0,4.594143975874472e+17,1.1088066560821633e+19,7.12558350683634e+19
70706.33096370097,7175116116684684.0,9.03330780943289e+19,39379114475597.734,863751816039640.5,6048096177644061.0,4.617005802533783e+17,1.1144653510271435e+19,7.87125976605794e+19
77777.96406007107,7200163323453884.0,9.858252947438782e+19,39516580920454.86,866768562883778.1,6069221075718581.0,4.636186734654194e+17,1.1192450279360104e+19,8.691228485201951e+19
85556.76046607818,7222635232280756.0,1.0764016438042647e+20,39639913384185.37,869474364995057.6,6088168639813902.0,4.6525257624432256e+17,1.1233416022464416e+19,9.592727586356707e+19
94113.436512686,7242936888019236.0,1.175873451461933e+20,39751334866790.32,871918537700825.8,6105284181531710.0,4.666702807662662e+17,1.1269139527002434e+19,1.0583727544748286e+20
103525.78016395462,7261442565827264.0,1.285130598128431e+20,39852899496216.78,874146368206731.8,6120884798381753.0,4.6792522136543686e+17,1.1300871612517806e+19,1.1672996665232766e+20
113879.3581803501,7278489752816175.0,1.4051468249330159e+20,39946459497783.164,876198573679465.0,6135255587292086.0,4.690585487091945e+17,1.1329578562516e+19,1.2870171549170347e+20
125268.29399838512,7294378515002566.0,1.536988047412983e+20,40033661719665.42,878111309126602.9,6148649656074021.0,4.701017327322116e+17,1.1356002797721475e+19,1.4185833903770268e+20
137796.12339822366,7309374413336916.0,1.681821366100822e+20,40115963636738.82,879916552391065.9,6161291007081845.0,4.7107904766395085e+17,1.138072051868819e+19,1.5631594634579417e+20
151576.73573804603,7323713310748436.0,1.840924781955105e+20,40194659732880.43,881642703687560.8,6173378454352390.0,4.720096777504494e+17,1.1404190361727793e+19,1.7220185922690367e+20
166735.40931185064,7337606821073138.0,2.0156976446749406e+20,40270911406140.92,883315237499979.5,6185090373877001.0,4.729093490130497e+17,1.1426790974076826e+19,1.8965561786106013e+20
183409.95024303574,7351247613166028.0,2.2076718766061014e+20,40345776079153.56,884957347691164.0,6196589173636979.0,4.737915098141237e+17,1.1448848115356017e+19,2.088300748955295e+20
201751.94526733932,7364814179082642.0,2.4185240224339594e+20,40420233368229.99,886590521499261.4,6208025312159533.0,4.746681446298584e+17,1.1470653292403157e+19,2.2989258095611757e+20
221928.13979407327,7378474951877047.0,2.6500881754666795e+20,40495207682979.55,888235035241633.9,6219540769062632.0,4.755503219367791e+17,1.1492476289969572e+19,2.530262641887974e+20
244121.9537734806,7392391816543378.0,2.9043698263940412e+20,40571587495344.65,889910376965810.5,6231272004219607.0,4.76448566124102e+17,1.1514573684724353e+19,2.784314062427704e+20
268535.1491508287,7406723125546431.0,3.1835606713831784e+20,40650241889684.46,891635609462878.6,6243352499433517.0,4.773731212007048e+17,1.153719490510307e+19,3.0632691675053693e+20
295389.6640659116,7421626344979461.0,3.490054403932404e+20,40732035085642.22,893429688815720.4,6255914988824208.0,4.7833414982370214e+17,1.1560586832211431e+19,3.36951907708149e+20
324929.6304725028,7437260433096669.0,3.826463500981636e+20,40817839492211.305,895311750730419.5,6269093463668214.0,4.7934190622545754e+17,1.1584997828892518e+19,3.705673678795586e+20
357423.5935197531,7453788067295115.0,4.195636991477088e+20,40908547930048.22,897301378623901.5,6283025049513057.0,4.804068743543013e+17,1.1610680971288728e+19,4.0745793627902175e+20
