t(s),Total solute volume 1,Total retention volume 1,Total 1 volume 1,Total 2 volume 1,Total 3 volume 1,Total 4 volume 1,Total 5 volume 1,Total 6 volume 1
1.0,1828576481452991.0,1828956428774806.0,379947321817.61945,0.0,0.0,0.0,0.0,0.0
2.1,2810220415740238.0,2810980960710966.5,583916356956.5481,210681530.3336183,622896774.054644,5914424106.615408,74936080210.81522,94944531140.22351
3.3100000000000005,3600397380333680.0,3601620640354664.0,748101788607.8882,566591677.4971986,1675173558.2176738,15908711451.661041,201564002933.79977,255443752747.40488
4.641000000000001,4306847966530210.5,4308638634078385.5,894890292563.0774,1067785080.656135,3156991921.592611,29987163533.00448,379938282544.5645,481627032540.45807
6.105100000000002,4969764264044879.0,4972245998888171.0,1032633106418.8188,1726709007.5635083,5105153234.233549,48502719438.7279,614530672303.8711,779236482885.3649
7.7156100000000025,5609349480889480.0,5612666255066456.0,1165528115663.129,2562301102.533447,7575648190.217884,71991630719.7174,912135481478.9065,1156980999836.8127
9.487171000000004,6237594875967014.0,6241913670814798.0,1296066901412.0513,3598659635.7758455,10639725296.258467,101136516060.00435,1281401470008.8074,1625951575373.747
11.435888100000005,6862436753266074.0,6867950985237838.0,1425898493604.9707,4864853944.014095,14383330426.097813,136761507336.02576,1732770324475.0405,2199553461973.508
13.579476910000007,7489536461868930.0,7496470002667640.0,1556199224943.516,6395156447.637791,18907792798.836056,179839349693.57657,2278566570836.022,2893632703976.04
15.937424601000009,8123124968412142.0,8131736729213253.0,1687848218782.805,8229461188.121912,24331062418.790844,231503891018.43552,2933155749162.6284,3726692418530.4604
18.53116706110001,8766409679013291.0,8776998735564081.0,1821511919856.8958,10413771569.21433,30789152121.91579,293064703898.71216,3713129589182.7744,4720147414161.597
21.384283767210015,9421746500482752.0,9434657706159852.0,1957679845696.2493,13000668990.007265,38437523128.60707,366021400092.58466,4637487279762.526,5898578959420.19
24.522712143931017,1.0090675552482204e+16,1.0106305540051266e+16,2096672007018.346,16049679991.509666,47452170545.76864,452075365673.4362,5727784057970.486,7289954287858.566
27.97498335832412,1.0773879543442738e+16,1.0792682965482686e+16,2238630258956.4375,19627463959.083515,58030178331.291245,553136769258.5544,7008219917424.762,8925777452017.08
31.772481694156536,1.1471107800546366e+16,1.1493603613201376e+16,2383502515784.1855,23807753974.70063,70389544430.62297,671324990754.3921,8505644972546.705,10841142877537.584
35.949729863572195,1.218110014281155e+16,1.220787770513172e+16,2531026933040.081,28671001064.361713,84768128982.71677,808961111442.7065,10249464265422.541,13074670880198.855
40.544702849929415,1.2901536992855754e+16,1.293326173854026e+16,2680721541605.1626,34303694344.921627,101421644302.76181,968551728387.182,12271432683926.232,15668314391933.469
45.59917313492236,1.3629033771533902e+16,1.3666452212372738e+16,2831883083013.0903,40797353125.5181,120620674979.30972,1152764014245.3948,14605338997643.47,18667036715846.887
51.1590904484146,1.4359189291857456e+16,1.4403133131972524e+16,2983597064897.0293,48247209821.43052,142646783841.1308,1364392580647.2302,17286586089534.953,22118370386340.383
57.27499949325607,1.5086690736023092e+16,1.513807991301337e+16,3134759573449.041,56750624829.589226,167787825455.26874,1606319326732.514,20351682358952.42,26071877280871.477
64.00249944258168,1.580547266791191e+16,1.5865317193144092e+16,3284110313535.2783,66405298453.584076,196332659593.96802,1881468126507.9666,23837667783834.94,30578541050265.133
71.40274938683986,1.6508924441299562e+16,1.6578324991133448e+16,3430275704619.926,77307373142.31613,228565540413.18774,2192757005213.5962,27781508216826.844,35690135993667.25
79.54302432552385,1.7190138646374574e+16,1.7270285964309052e+16,3571820503753.154,89549552725.85748,264760555892.1033,2543051408781.2095,32219503568469.22,41458632344861.91
88.49732675807624,1.784219188707838e+16,1.7934365197026038e+16,3707306146354.636,103219401636.59123,305176599419.61584,2935123221363.3765,37186768836423.69,47935715742464.74
98.34705943388387,1.8458447302382416e+16,1.8564012103550252e+16,3835353605016.181,118398019713.10355,350053451825.83673,3371621154995.921,42716859208750.05,55172515727553.766
109.18176537727226,1.9032865411989896e+16,1.9153271215704936e+16,3954707977976.3384,135159306758.23122,399609607071.8321,3855058736632.3438,48841618078841.164,63219650007750.64
121.09994191499949,1.9560306294994064e+16,1.9697085052644788e+16,4064301276727.263,153570023278.86166,454042451916.2636,4387826006412.2324,55591325395533.82,72127692496866.45
134.20993610649944,2.00368025963765e+16,2.019156872526948e+16,4163309152138.278,173690808448.64175,513531275690.20703,4972229892842.084,62995209228053.445,81948158535815.02
148.6309297171494,2.045978055870213e+16,2.0634233562709876e+16,4251196821093.6973,195578226443.98267,578243320544.07,5610565838172.582,71082353125215.81,92735066676269.3
164.49402268886433,2.082820639999149e+16,2.1024137068104256e+16,4327749481329.195,219287779012.70755,648342688447.2194,6305219617835.521,79882985882229.75,104547082663889.83
181.94342495775078,2.1142638827863196e+16,2.1361939848425504e+16,4393083222974.0767,244877657231.7417,724001433674.3165,7058793731215.699,89430082493210.33,117450182024031.67
201.13776745352587,2.1405175650288784e+16,2.164985719213086e+16,4447633935163.266,272412832304.97964,805411657714.3611,7874247861051.728,99761143261891.16,131520692293892.06
222.25154419887846,2.1619292898109444e+16,2.189150329859369e+16,4492123878413.719,301968937041.87714,892796985341.8446,8755038606829.092,110919963682943.27,146848508393689.94
245.47669861876633,2.1789587354533824e+16,2.2091638565720244e+16,4527508186608.172,333635303549.47626,986421546002.8862,9705241026044.86,122958173867261.08,163540231256941.6
271.024368480643,2.192144590495634e+16,2.2255842856974104e+16,4554906163481.059,367516530955.8095,1086594609161.0852,10729634384483.004,135936324598469.75,181721975731247.66
299.1268053287073,2.202067529355161e+16,2.2390147928753544e+16,4575524352303.686,403732076265.98413,1193669374912.9905,11833737427366.873,149924333969820.66,201541638001256.88
330.03948586157804,2.20931314478711e+16,2.2500667946166836e+16,4590579515808.157,442413583465.3574,1308035077575.8625,13023784263768.41,165001181763545.8,223170504091542.06
364.0434344477359,2.2144386997888852e+16,2.2593266710988096e+16,4601229552271.807,483699954100.64734,1430102411783.4336,14306639639181.06,181253836042921.8,246804205498956.9
401.44777789250946,2.2179468721653144e+16,2.2673293572394044e+16,4608518941167.182,527730457308.7684,1560283162039.0764,15689660322920.346,198775497150088.28,272663160707363.62
442.5925556817604,2.220268463059793e+16,2.274540816736681e+16,4613342814416.452,574636411229.7661,1698965608412.889,17180515655494.924,217663324340768.34,300992751938536.25
487.8518112499365,2.221754577266269e+16,2.281349960395266e+16,4616430708403.972,624532086339.3413,1846487631714.4426,18786983384391.293,238015849347610.56,332063548131532.5
537.6369923749302,2.222677372640098e+16,2.2880691578455656e+16,4618348121126.21,677505461885.3739,2003109384257.5754,20516736014213.254,259930269736248.4,366171883336917.25
592.4006916124232,2.223237408438886e+16,2.2949414116786956e+16,4619511780801.873,733609328258.6857,2168986983275.8508,22377128411500.402,283499758101793.9,403641037792406.3
652.6407607736655,2.2235750813169156e+16,2.3021517025194228e+16,4620213407934.571,792853025921.7563,2344148086203.0615,24374990790754.37,308810839377530.4,444823167336702.8
718.9048368510321,2.223783654258394e+16,2.309840009770224e+16,4620646787232.709,855194917726.563,2528469634064.545,26516424481255.508,335940803317468.3,490102015980558.8
791.7953205361354,2.2239218445500988e+16,2.318113958186938e+16,4620933923287.862,920535570094.1608,2721657690429.1265,28806592922334.09,364955056747124.75,539896359515186.0
871.9748525897489,2.22402464024517e+16,2.3270597336011304e+16,4621147515357.206,988711605278.6189,2923229264069.29,31249498307107.74,395904292634702.7,594664054233074.8
960.1723378487239,2.2241117365836516e+16,2.3367506421335156e+16,4621328486818.67,1059490276913.6985,3132496269878.4336,33847735433229.527,428821373234763.7,654906631797058.6
1057.1895716335964,2.2241935774969944e+16,2.347253275190932e+16,4621498538395.485,1132564988498.1658,3348552277037.115,36602217858162.3,463717859378302.3,721174283898968.4
1163.9085287969563,2.224275345245344e+16,2.3586316263291668e+16,4621668437947.826,1207552159927.4688,3570263242436.4062,39511876515538.34,500580192564863.6,794071257917549.9
1281.299381676652,2.2243593998346924e+16,2.3709496679935044e+16,4621843089169.007,1283990017539.878,3796263930634.551,42573336403557.47,539365598964314.7,874261649182931.4
1410.4293198443174,2.224446660873212e+16,2.384272901318072e+16,4622024402849.288,1361339994089.225,4024962049837.2466,45780582261406.07,579997854008701.4,962475641731662.2
1552.4722518287492,2.2245373326095496e+16,2.398669308802081e+16,4622212803382.807,1438991460272.6995,4254552237543.831,49124629067127.15,622363108189300.0,1059516268167655.5
1708.7194770116243,2.224631255731593e+16,2.414210029337638e+16,4622407959745.921,1516270455640.2812,4483041870487.867,52593217756494.016,666306032256009.4,1166266765762086.0
1880.5914247127869,2.224728063882696e+16,2.4309699790720044e+16,4622609110711.516,1592452935157.0286,4708290225591.477,56170560841190.27,711626596065247.5,1283698642715158.5
2069.6505671840655,2.224827249582511e+16,2.4490285634770356e+16,4622815201821.2295,1666782795929.4712,4928061774102.965,59837166487575.09,758077839034176.0,1412880473651636.8
2277.615623902472,2.224928188934709e+16,2.4684705915821356e+16,4623024936724.004,1738494584443.2664,5140093314957.853,63569772724329.08,805365038550117.4,1554987602363671.2
2506.3771862927197,2.2250301542333616e+16,2.4893874694440308e+16,4623236803370.019,1806840330981.0474,5342173311648.854,67341425218110.15,853146696161980.4,1711312780280617.8
2758.0149049219917,2.2251323243708024e+16,2.5118787399457548e+16,4623449095636.377,1871119420500.7705,5532230208350.63,71121731508705.08,901037759731605.2,1883277865784713.5
3034.816395414191,2.2252337984746224e+16,2.5360540240505556e+16,4623659941662.581,1930709846921.1252,5708424838313.23,74877320902612.33,948615451167012.4,2072446689062830.0
3339.2980349556105,2.2253336148778652e+16,2.562035405849314e+16,4623867343267.342,1985098674235.4834,5869240489573.918,78572531347644.3,995427969792253.5,2280539202067525.5
3674.227838451172,2.2254307761522724e+16,2.589960285988406e+16,4624069227963.423,2033909136572.449,6013563035892.189,82170331832947.39,1041006179491032.6,2509447045636973.5
4042.6506222962894,2.2255242800912984e+16,2.6199847039360404e+16,4624263513335.121,2076921652158.0693,6140743075841.093,85633470853070.47,1084878159617139.1,2761250679735857.5
4447.915684525919,2.2256131558040652e+16,2.6522870991640296e+16,4624448182035.38,2114086197518.3333,6250632529336.355,88925818620581.8,1126586210105328.5,3038238237964888.5
4893.707252978511,2.225696503346549e+16,2.6870724464131172e+16,4624621364132.731,2145524050005.9058,6343589801369.044,92013844355362.34,1165705567301223.0,3342926283793610.0
5384.077978276362,2.225773534583249e+16,2.724576664200085e+16,4624781422014.876,2171517861325.6582,6420450444743.923,94868142629818.06,1201863740562412.0,3678082663248017.0
5923.485776103998,2.225843612320573e+16,2.7650711637152268e+16,4624927031701.326,2192490294060.7588,6482464006361.402,97464898112269.58,1234759067602054.5,4046751666900054.5
6516.834353714399,2.2259062843014396e+16,2.808867383664455e+16,4625057253478.325,2208972871986.207,6531201936427.293,99787160784697.39,1264176867879067.8,4452281732904539.0
7169.5177890858395,2.2259613085286116e+16,2.8563211523380024e+16,4625171584516.56,2221568027066.2363,6568445378814.23,101825798834164.2,1290001511660133.8,4898355942609229.0
7887.469567994424,2.2260086667085576e+16,2.907836737306697e+16,4625269986805.154,2230908306937.8965,6596064561510.718,103580008337665.67,1312222873523197.0,5389025581265231.0
8677.216524793868,2.226048563443899e+16,2.9638704891810868e+16,4625352885473.764,2237617106650.076,6615902689350.144,105057290128078.38,1330936035330369.0,5928747059231986.0
9545.938177273256,2.2260814101352004e+16,3.0249340580409708e+16,4625421135343.177,2242274980901.4316,6629676332699.945,106272854255746.89,1346333737587365.0,6522422514765663.0
10501.531995000581,2.2261077942582984e+16,3.0915972530942216e+16,4625475957088.821,2245394605473.7207,6638901386561.702,107248476590651.66,1358691890620259.5,7175444449199203.0
11552.68519450064,2.226128436527746e+16,3.1644907157290176e+16,4625518848233.671,2247405981448.8237,6644849313469.6,108010901498354.3,1368349336048096.0,7893744780323126.0
12708.953713950705,2.2261441401234616e+16,3.2443086669058748e+16,4625551477649.737,2248651829983.7534,6648533517427.657,108589947180374.62,1375683842717662.8,8683848741100954.0
13980.849085345777,2.226155737305765e+16,3.331812054119332e+16,4625575574633.213,2249391665178.117,6650721378310.21,109016513369210.03,1381086867098312.5,9552934099050022.0
15379.933993880357,2.2261640390809388e+16,3.4278324468232824e+16,4625592824318.019,2249812051024.3223,6651964573445.568,109320704143089.42,1384939773540725.8,1.0508896230290838e+16
16918.927393268394,2.226169793129657e+16,3.5332770021600776e+16,4625604780258.1045,2250040192881.276,6652639261200.244,109530256831256.5,1387593933441218.0,1.1560419615797444e+16
18611.820132595236,2.226173653338498e+16,3.6491347624904904e+16,4625612801119.222,2250158253246.8423,6652988408475.076,109669414216597.28,1389356441095468.8,1.2717056476745022e+16
20474.00214585476,2.226176163189044e+16,3.7764844354367944e+16,4625618016164.184,2250216440250.7134,6653160491122.009,109758302384522.64,1390482235495246.5,1.3989313189650128e+16
22522.40236044024,2.2261777519776824e+16,3.916503716891963e+16,4625621317398.279,2250243743576.036,6653241239304.946,109812796637095.38,1391172404850569.2,1.5388745341354904e+16
24775.642596484264,2.2261787419524948e+16,4.0704801226164184e+16,4625623374398.519,2250255959714.041,6653277368335.335,109844790246222.2,1391577593723917.2,1.6928062265966674e+16
27254.206856132692,2.2261793628543264e+16,4.239823245655338e+16,4625624664527.515,2250261203769.6387,6653292877652.499,109862738474555.44,1391804896442927.2,1.8621242014346716e+16
29980.627541745966,2.2261797701573708e+16,4.426078349169357e+16,4625625510834.359,2250263403756.731,6653299384096.901,109872338891402.47,1391926476230722.5,2.0483657786698932e+16
32979.69029592056,2.2261800637219404e+16,4.630941236589495e+16,4625626120811.884,2250264351078.1016,6653302185714.404,109877225470739.67,1391988358183061.5,2.253221695236416e+16
36278.65932551262,2.226180304492541e+16,4.856274399848017e+16,4625626621092.463,2250264816289.932,6653303561446.443,109879588642430.52,1392018283703672.8,2.4785513886209836e+16
39907.525258063884,2.226180527960908e+16,5.1041245148363256e+16,4625627085421.954,2250265042175.8896,6653304229317.053,109880674107343.6,1392032028855638.5,2.7263997969434148e+16
43899.277783870275,2.226180754074273e+16,5.376741416602301e+16,4625627555247.28,2250265270735.4595,6653304905092.65,109881149121068.78,1392038043750734.5,2.999015823467742e+16
48290.20556225731,2.2261809939479268e+16,5.676598735372269e+16,4625628053664.152,2250265513204.1846,6653305621993.04,109881349745398.77,1392040584121490.8,3.298872628118783e+16
53120.22611848305,2.226181254058648e+16,6.006416408294434e+16,4625628594130.249,2250265776128.9087,6653306399375.124,109881434864055.8,1392041661926996.8,3.628689924479716e+16
58433.24873033136,2.2261815386773536e+16,6.369185301358139e+16,4625629185519.781,2250266063826.763,6653307250003.195,109881474892385.11,1392042168810805.2,3.99145847806054e+16
64277.57360336451,2.2261818511866044e+16,6.768194188508436e+16,4625629834861.163,2250266379716.896,6653308183986.591,109881490317028.11,1392042474963039.2,4.3904670203539576e+16
70706.33096370097,2.2261821947341332e+16,7.207059348525931e+16,4625630548694.819,2250266726981.0884,6653309210732.778,109881507273639.31,1392042689748449.5,4.829331813440952e+16
77777.96406007107,2.2261825724889468e+16,7.689757060382493e+16,4625631333605.4375,2250267108822.642,6653310339712.859,109881525918633.38,1392042925920205.8,5.312029121831443e+16
85556.76046607818,2.226182987965455e+16,8.220659255173515e+16,4625632196895.349,2250267528793.973,6653311581430.181,109881546425471.73,1392043185675508.8,5.842930872867243e+16
94113.436512686,2.2261834449279412e+16,8.80457268132896e+16,4625633146386.111,2250267990700.107,6653312947134.941,109881568979950.12,1392043471367782.5,6.426843810957839e+16
103525.78016395462,2.2261839475121564e+16,9.446781888665706e+16,4625634190671.113,2250268498721.5254,6653314449187.445,109881593786198.16,1392043785582698.8,7.069052481502814e+16
113879.3581803501,2.2261845002646384e+16,1.0153096406276755e+17,4625635339197.292,2250269057453.956,6653316101175.764,109881621068621.52,1392044131162739.2,7.775366408739189e+16
125268.29399838512,2.22618510818331e+16,1.0929902512112602e+17,4625636602349.471,2250269671949.39,6653317918036.972,109881651073903.97,1392044511232599.5,8.552171865279413e+16
137796.12339822366,2.226185776761905e+16,1.1784220027080648e+17,4625637991542.719,2250270347760.9937,6653319916189.968,109881684073202.4,1392044929226956.2,9.406488666163187e+16
151576.73573804603,2.2261865120387388e+16,1.272376460427174e+17,4625639519323.644,2250271090992.4224,6653322113681.232,109881720364552.34,1392045388920960.2,1.0346032458032051e+17
166735.40931185064,2.226187320650178e+16,1.3757016024352776e+17,4625641199481.444,2250271908351.811,6653324530344.557,109881760275506.73,1392045894463642.0,1.1379283014464851e+17
183409.95024303574,2.226188209890882e+16,1.4893293050784944e+17,4625643047173.246,2250272807212.759,6653327187981.207,109881804166112.53,1392046450415625.0,1.2515559091131675e+17
201751.94526733932,2.226189187769899e+16,1.6142835447512294e+17,4625645079040.455,2250273795670.9517,6653330110527.503,109881852431674.28,1392047061784150.0,1.3765100443422262e+17
221928.13979407327,2.2261902630965264e+16,1.75168938007195e+17,4625647313387.328,2250274882630.992,6653333324311.404,109881905506996.3,1392047734076781.2,1.513915764811256e+17
244121.9537734806,2.2261914455424452e+16,1.9027827852116886e+17,4625649770309.976,2250276077869.191,6653336858238.274,109881963869447.78,1392048473340235.5,1.6650090436582826e+17
268535.1491508287,2.2261927457329364e+16,2.068921408959077e+17,4625652471885.914,2250277392125.7876,6653340744063.45,109882028043464.22,1392049286217420.2,1.831147528537095e+17
295389.6640659116,2.2261941753376996e+16,2.2515963404184467e+17,4625655442362.846,2250278837196.719,6653345016663.664,109882098605032.89,1392050180004222.0,2.013822307305622e+17
324929.6304725028,2.22619574717151e+16,2.452444967576769e+17,4625658708367.668,2250280426035.397,6653349714337.891,109882176186656.06,1392051162712412.2,2.21467076658214e+17
357423.5935197531,2.2261974753041092e+16,2.6732650206684003e+17,4625662299134.93,2250282172863.784,6653354879135.819,109882261482781.39,1392052243138378.5,2.4354906350982653e+17
393166.95287172846,2.2261993751802172e+16,2.916029897887746e+17,4625666246756.178,2250284093293.688,6653360557216.398,109882355255718.34,1392053430938131.5,2.67825530939881e+17
432484.6481589014,2.2262014637503348e+16,3.182905376456104e+17,4625670586451.661,2250286204458.984,6653366799238.933,109882458342100.48,1392054736709099.0,2.945130564894656e+17
475734.11297479155,2.226203759613261e+16,3.476267817179334e+17,4625675356866.532,2250288525159.684,6653373660788.847,109882571659915.9,1392056172079230.2,3.2384927604051866e+17
523308.52427227073,2.2262062831712124e+16,3.7987239752327443e+17,4625680600393.167,2250291076018.7236,6653381202841.353,109882696216164.61,1392057749803952.0,3.560948648926629e+17
