t(s),Total solute volume 1,Total retention volume 1,Total 1 volume 1,Total 2 volume 1,Total 3 volume 1,Total 4 volume 1,Total 5 volume 1,Total 6 volume 1
1.0,3805481240629705.0,3849035389865378.5,43554149235680.42,0.0,0.0,0.0,0.0,0.0
2.1,5848495420698727.0,5915473035470137.0,66936621549086.05,4316560.406581232,36611179.997738585,1556436495.725796,26607525855.922577,12788332243.513842
3.3100000000000005,7493211686414884.0,7579081241526688.0,85760540711238.42,11612565.583419668,98491047.31996763,4182014992.5029407,70739473875.22458,33982808092.07106
4.641000000000001,8963820844544162.0,9066616738075306.0,102591791061130.14,21892946.507234972,185681535.33376697,7879148694.06047,132456657003.18637,63559089823.89172
6.105100000000002,1.0343975205702672e+16,1.0462691704153106e+16,118387779682938.3,35417556.732679196,300386606.09123194,12741877163.179132,213356929116.89056,102284157072.7845
7.7156100000000025,1.1675742693083472e+16,1.1809859195959544e+16,133629977157754.34,52580786.54780604,445951189.98009264,18912493642.3174,315815413301.59344,151299279346.65714
9.487171000000004,1.2984125297322094e+16,1.31334119875466e+16,148604533205538.7,73884958.43179007,626635579.2493943,26572125798.21842,442838175817.94904,212046196812.20645
11.435888100000005,1.4285740120727154e+16,1.445016295389637e+16,163501631877617.6,99937432.92888266,847590895.1484783,35939785467.24907,598051450570.7863,286262527184.7507
13.579476910000007,1.5592586612521576e+16,1.5772255487527908e+16,178458607840042.6,131457090.28251381,1114914065.0254838,47274775551.05541,785743722303.7291,376002297283.19977
15.937424601000009,1.6913916429509184e+16,1.7109054868983196e+16,193581347066794.75,169286044.3742881,1435747172.3868697,60880983444.83843,1010937753524.5077,483668637035.1464
18.53116706110001,1.825725551248572e+16,1.8468182174334084e+16,208955984580362.94,214405229.59850752,1818409652.402998,77112582343.29074,1279485014027.2334,612046856765.8564
21.384283767210015,1.962900530378447e+16,1.985612249826623e+16,224655785431245.03,267953481.0283637,2272560113.262933,96381010588.63713,1598179695071.7217,764307831290.9069
24.522712143931017,2.103481771987134e+16,2.127860425811596e+16,240745436285836.8,331250151.8092505,2809388154.85428,119163248030.0627,1974889806304.5112,943908266127.5719
27.97498335832412,2.2479840694015292e+16,2.274084737728371e+16,257283855675677.53,405821536.2853253,3441838458.199047,146011481247.90097,2418699437018.5894,1154269014444.2898
31.772481694156536,2.396888577743685e+16,2.424773234646447e+16,274326112193088.5,493431511.9038268,4184870639.612595,177564284491.56073,2940048635297.2026,1398165612573.5571
35.949729863572195,2.5506546321984316e+16,2.5803919192187396e+16,291924777076265.9,596116916.5410589,5055759232.918474,214559450128.7282,3550846391964.417,1677035408533.663
40.544702849929415,2.7097282069516532e+16,2.741393286398268e+16,310130892297912.9,716228249.71501,6074438758.463438,257848583930.29803,4264522316162.308,1990740601213.8953
45.59917313492236,2.8745478546958844e+16,2.908222391242751e+16,328994650278787.4,856476328.252178,7263899177.882221,308413543625.29175,5095981951113.713,2338199319628.583
51.1590904484146,3.045548493681834e+16,3.0813207842599252e+16,348565827225021.8,1019985528.3627752,8650637028.613693,367384753708.8154,6061447406466.304,2718575773199.1167
57.27499949325607,3.2231629897915796e+16,3.2611281841216896e+16,368893964081243.2,1210354153.8031507,10265166737.608261,436061374071.53644,7178199867136.65,3132242457787.001
64.00249944258168,3.407821009995334e+16,3.448081320881085e+16,390028235178773.44,1431722198.7911768,12142594312.618458,515933220112.83734,8464282242418.072,3581083899684.6367
71.40274938683986,3.5999441829275896e+16,3.642608999766921e+16,412016894234253.4,1688846259.0353842,14323251249.591331,608704213853.0323,9938248783463.373,4068309064245.2173
79.54302432552385,3.799936335501878e+16,3.845122183832756e+16,434906156820613.3,1987180558.015855,16853379851.591288,716316979267.732,11619046756997.79,4598122191470.403
88.49732675807624,4.008167577737165e+16,4.055997879279641e+16,458738378805280.44,2332962006.7224035,19785852296.469654,840977972019.3396,13526080830732.18,5175459002407.703
98.34705943388387,4.224951339589019e+16,4.275555921627739e+16,483549428201554.9,2733295963.199869,23180895220.306732,985182256328.9911,15679458916262.074,5805836821898.622
109.18176537727226,4.450514140509437e+16,4.50402843395495e+16,509365225348240.4,3196238029.2522173,27106780363.333244,1151736734966.5364,18100372057348.65,6495297296251.763
121.09994191499949,4.6849588334534296e+16,4.741522696901771e+16,536197536311284.56,3730865991.555379,31640431443.416466,1343780350634.6462,20811537596763.15,7250408927259.593
134.20993610649944,4.928223159478017e+16,4.98797927813741e+16,564039229651476.8,4347335070.522443,36867889465.68319,1564799570002.7898,23837637476915.855,8078304670832.738
148.6309297171494,5.180036469693878e+16,5.243128304289511e+16,592859323506011.6,5056909137.4243965,42884574459.252945,1818637394204.9182,27205703880178.562,8986739692238.986
164.49402268886433,5.439878214176234e+16,5.506447513018496e+16,622598234946655.0,5871960590.539975,49795281935.71032,2109494252038.8542,30945430539662.543,9984161441700.424
181.94342495775078,5.7069421233920664e+16,5.777126055317472e+16,653163680880237.2,6805932170.720108,57713857411.86522,2441919436517.328,35089410664342.125,11079788483523.69
201.13776745352587,5.98010988200952e+16,6.054037892747054e+16,684427665370614.5,7873255134.903111,66762502036.17365,2820792227138.721,39673317146772.61,12283696873564.203
222.25154419887846,6.257937590064864e+16,6.335728124482471e+16,716224930475000.1,9089219895.856806,77070676719.1736,3251292470362.508,44736047222617.484,13606914111444.535
245.47669861876633,6.538657567160883e+16,6.62041483144104e+16,748353163072263.0,10469797544.567228,88773591741.68454,3738861144725.7295,50319853890289.48,15061521304848.867
271.024368480643,6.820197239298516e+16,6.906008199097169e+16,780575156757824.2,12031413747.817238,102010294844.4184,4289152309721.7266,56470482733240.08,16660764477215.6
299.1268053287073,7.100216063657169e+16,7.190147886943161e+16,812623038114471.2,13790680552.1606,116921404913.27194,4907978845201.512,63237327712087.89,18419176102590.355
330.03948586157804,7.376160712932406e+16,7.470258870115019e+16,844204582692846.8,15764096762.360653,133646581696.71222,5601255551459.382,70673614842750.42,20352708060655.027
364.0434344477359,7.645337983607605e+16,7.743625212643418e+16,875011559370088.9,17967733720.228992,152321873866.6849,6374944491935.607,78836619566483.72,22478877322068.508
401.44777789250946,7.905003981829096e+16,8.007480310699318e+16,904729937529187.9,20416930036.15206,173077144346.2118,7235008846291.794,87787922431988.11,24816925820376.516
442.5925556817604,8.152466955274408e+16,8.259110945561376e+16,933051655856709.8,23126025178.72927,196033825243.55457,8187382829470.357,97593708188453.45,27387996144507.465
487.8518112499365,8.385199637039386e+16,8.495970966729547e+16,959687479627269.5,26108166368.58011,221303292836.50653,9237966142231.385,108325114785472.44,30215324887431.156
537.6369923749302,8.600955235181502e+16,8.71579867356063e+16,984380275092378.2,29375224151.926613,248986160700.45514,10392651580720.797,120058640034586.17,33324455698950.34
592.4006916124232,8.797879471641234e+16,8.91673021399623e+16,1006917831625137.9,32937847492.104702,279172750645.9574,11657393436935.55,132876613591333.14,36743474298409.1
652.6407607736655,8.974609700114053e+16,9.097399928564466e+16,1027144205021208.1,36805677751.77665,311944904320.98364,13038321800211.064,146867739211064.84,40503267889630.17
718.9048368510321,9.130351527153883e+16,9.257017954542773e+16,1044968486093785.0,40987722031.23828,347379138798.01855,14541903606586.59,162127705759325.06,44637811568509.18
791.7953205361354,9.264923909318387e+16,9.395415958259907e+16,1060369961480818.1,45492860961.496864,385550935461.97015,16175145346727.223,178759854382518.28,49184484408693.53
871.9748525897489,9.378765656266939e+16,9.513053840694766e+16,1073398857560571.2,50330437090.68604,426539707164.0867,17945825213601.836,196875873413500.28,54184417946380.93
960.1723378487239,9.472899660561131e+16,9.610983688451899e+16,1084172246427739.1,55510842213.683235,470433754057.74664,19862735115116.793,216596472995492.6,59682879773074.375
1057.1895716335964,9.548855721857091e+16,9.690771838450643e+16,1092865213245298.9,61046001486.8078,517334345315.5844,21935906809588.523,238051970609163.7,65729694924665.016
1163.9085287969563,9.608557937474208e+16,9.754385085256317e+16,1099697968437403.9,66949645180.2786,567358004730.0748,24176793091725.273,261382700842335.38,72379707799327.66
1281.299381676652,9.65418743628386e+16,9.804051919082037e+16,1104920138085234.4,73237270071.6128,620636172130.6346,26598375934490.848,286739152974795.3,79693287544754.02
1410.4293198443174,9.688034779200715e+16,9.842113270385614e+16,1108793871747184.9,79925722925.30809,677311669478.0651,29215179530483.42,314281742850459.94,87736880328429.42
1552.4722518287492,9.712357803875302e+16,9.870878710884509e+16,1111577573367476.1,87032384636.54132,737531790141.1827,32043176810833.082,344180143033047.9,96583612705798.61
1708.7194770116243,9.729259592539403e+16,9.892502954049067e+16,1113511935208325.4,94573987082.7426,801438281707.5505,35099591352377.168,376612124854945.9,106313951412276.11
1880.5914247127869,9.740597685329555e+16,9.908893905700246e+16,1114809547706941.2,102565144117.40378,869154910320.6223,38402609560398.484,411761900178295.44,117016426206694.77
2069.6505671840655,9.747930337825813e+16,9.92165813471916e+16,1115648748900708.9,111016712192.45518,940773582699.0242,41971027234299.875,449817978815774.1,128788423687460.98
2277.615623902472,9.752499672565922e+16,9.932083618421234e+16,1116171696229287.5,119934107429.3788,1016340098178.6602,45823857471847.7,490970569567443.06,141737061079052.6
2506.3771862927197,9.755246286374989e+16,9.94115426741885e+16,1116486038339214.0,129315693892.81012,1095840501445.991,49979922524677.09,535408543665474.6,155980149713644.4
2758.0149049219917,9.756846309958506e+16,9.949587124824202e+16,1116669156468547.2,139151328918.98935,1179188762546.1387,54457442078655.48,583315951698245.1,171647258320018.72
3034.816395414191,9.757760610022998e+16,9.95788180857479e+16,1116773795498832.4,149421117215.06528,1266216222328.1172,59273617679725.766,634868048566876.9,188880886433000.75
3339.2980349556105,9.758286522993456e+16,9.966372794746726e+16,1116833984735627.9,160094396079.75607,1356663002962.5632,64444239497398.55,690228974362258.2,207838761538521.38
3674.227838451172,9.758606063848246e+16,9.975276334044224e+16,1116870555273232.6,171128981991.1136,1450171579393.358,69983055630639.03,749536870436960.8,228690920057328.28
4042.6506222962894,9.758823488359888e+16,9.984730304021296e+16,1116895438887177.8,182470651058.32385,1546282444089.7874,75901523961661.1,812913983337028.9,251628457333241.56
4447.915684525919,9.758995687357205e+16,9.994822614754304e+16,1116915146570245.6,194052971353.51596,1644432629370.5713,82208015481253.34,880447770318079.2,276859856000687.28
4893.707252978511,9.75915170178467e+16,1.000561083644078e+17,1116933001975534.1,205797484422.82004,1743957258878.148,88907203994648.31,952186921986137.0,304614463861566.9
5384.077978276362,9.759305404063864e+16,1.001713432979766e+17,1116950592762048.6,217614359320.10956,1844095087780.0725,95999319393010.27,1028133057665566.5,335144578070101.1
5923.485776103998,9.759462916261338e+16,1.0029421009019461e+17,1116968619582800.9,229403607453.31433,1943998796053.6404,103479337555475.23,1108231832065358.4,368727735974023.1
6516.834353714399,9.759626621816056e+16,1.0042490644245549e+17,1116987355215572.6,241056944516.419,2042750765844.5159,111336130323271.3,1192363695629554.8,405669235416013.6
7169.5177890858395,9.759797169573885e+16,1.00563561579648e+17,1117006873918905.4,252460356123.24533,2139384822508.662,119551609081717.44,1280334647801361.0,446304907928665.56
7887.469567994424,9.759974395985454e+16,1.0071023903544798e+17,1117027156975052.4,263497374536.42966,2232914001835.739,128099905699520.28,1371867431382115.8,491004170160248.94
8677.216524793868,9.760157713797882e+16,1.0086493545047235e+17,1117048137174590.8,274053007215.46802,2322363841021.9814,136946645031046.19,1466593732266134.0,540173381173414.9
9545.938177273256,9.760346260822488e+16,1.0102757912713262e+17,1117069715842486.4,284018177885.39624,2406810012880.484,146048373586955.34,1564048065323825.8,594259535963831.1
10501.531995000581,9.760538951985378e+16,1.0119803068120048e+17,1117091768795138.1,293294454153.47955,2485418388319.592,155352218434036.3,1663664132658743.5,653754328616404.4
11552.68519450064,9.760734498881989e+16,1.0137608741897558e+17,1117114148578326.8,301798752279.9875,2557484905217.4893,164795857425732.47,1764774518567708.5,719198621926360.0
12708.953713950705,9.760931423756578e+16,1.0156149272734901e+17,1117136686067126.5,309467642630.2386,2622472053397.637,174307884524808.97,1866614615437244.2,791187364058083.9
13980.849085345777,9.761128078816776e+16,1.0175395155924349e+17,1117159192676416.4,316260843779.36115,2680038484113.2065,183808649946133.8,1968331632208380.2,870374996917049.0
15379.933993880357,9.761322675364558e+16,1.0195315288261928e+17,1117181463694820.5,322163504106.2371,2730058344524.9307,193211641689298.97,2068999396335502.2,957481405405621.6
16918.927393268394,9.761513324560712e+16,1.0215879965327042e+17,1117203282950094.8,327186938101.0832,2772627517189.8945,202425450541739.47,2167639398049908.5,1053298461666176.4
18611.820132595236,9.761698090182606e+16,1.0237064642689267e+17,1117224428847098.5,331367613752.48413,2808055038943.449,211356323318443.34,2263248126415753.0,1158697223832697.2
20474.00214585476,9.761875052502478e+16,1.0258854413264694e+17,1117244681678482.9,334764369024.7515,2836839512843.16,219911258800442.34,2354830208495549.0,1274635854765762.8
22522.40236044024,9.762042381099304e+16,1.0281249080715733e+17,1117263831957795.4,337454048079.44464,2859632128810.798,228001539397308.22,2441436205842892.0,1402168332789345.0
24775.642596484264,9.762198413006453e+16,1.0304268628690818e+17,1117281689363271.4,339525958176.7389,2877189690564.6406,235546523492304.3,2522203194699376.5,1542454033640065.0
27254.206856132692,9.762341731213565e+16,1.032795880670494e+17,1117298091722130.0,341075716248.513,2890322470563.9404,242477456244519.78,2596395538015346.5,1696768270744796.0
29980.627541745966,9.762471237388307e+16,1.0352396487863512e+17,1117312913333376.9,342199142481.4123,2899842463344.4736,248741000680969.34,2663442659498901.5,1866513889632868.0
32979.69029592056,9.762586212012142e+16,1.0377694416016e+17,1117326071850181.9,342986842267.16003,2906517472195.9434,254302158488867.84,2722970283540261.5,2053234021844682.8
36278.65932551262,9.76268635519162e+16,1.040400496495843e+17,1117337532950600.4,343519994672.5235,2911035420075.1133,259146253334299.1,2774821641757731.5,2258626114210703.5
39907.525258063884,9.762771802405928e+16,1.0431522591452763e+17,1117347312139836.9,343867657638.07806,2913981513507.2188,263279698398848.34,2819065669815343.5,2484557360943223.0
43899.277783870275,9.762843111466744e+16,1.0460484781491338e+17,1117355473257851.1,344085651376.53516,2915828780384.0654,266729367783470.9,2855990266050993.0,2733081678721861.5
48290.20556225731,9.762901224982856e+16,1.0491171354925386e+17,1117362124183520.6,344216846180.7051,2915846100724.233,269540533277902.44,2886080199864108.5,3006458379152781.0
53120.22611848305,9.762947378585502e+16,1.052390285426747e+17,1117367406331306.9,344218473260.95,2915859856503.265,271773496640862.06,2909981068467368.0,3307172707050021.0
58433.24873033136,9.76298304708635e+16,1.0559037225111832e+17,1117371488489184.2,344219730703.72815,2915870487266.149,273499221871026.44,2928452544697951.0,3637958434978801.5
64277.57360336451,9.763009816855872e+16,1.0596966560020997e+17,1117374552212722.8,344220674434.26196,2915878465820.3716,274794408736055.97,2942315658470724.5,4001822713091230.0
70706.33096370097,9.763029289314427e+16,1.0638113945899034e+17,1117376780779895.0,344221360908.37177,2915884269458.856,275736534887478.0,2952399737831178.5,4402073406716820.5
77777.96406007107,9.763042989590022e+16,1.0682931152110122e+17,1117378348737239.2,344221843892.29706,2915888352736.0522,276399389381813.4,2959494610273424.5,4842349166612009.0
85556.76046607818,9.763052293405026e+16,1.0731897722026304e+17,1117379413532250.6,344222171885.19684,2915891125677.0283,276849532745632.1,2964312720118652.5,5326652506518824.0
94113.436512686,9.763058378740275e+16,1.0785521826113896e+17,1117380109981460.6,344222386415.12164,2915892939371.235,277143958260460.5,2967464101334867.5,5859386188833821.0
103525.78016395462,9.763062618529842e+16,1.0844324929004643e+17,1117380595213245.8,344222535882.93317,2915894203012.664,277144061875201.72,2969445052231377.0,6445393278689387.0
113879.3581803501,9.763067186667928e+16,1.0908790388869584e+17,1117381118023583.6,344222696926.2099,2915895564516.223,277144173462789.97,2969445405801216.0,7090001206467431.0
125268.29399838512,9.763067302243046e+16,1.0979697337943448e+17,1117381131250823.8,344222701000.6472,2915895598962.626,277144176286000.66,2969445414702294.5,7799069516464933.0
137796.12339822366,9.76306730431931e+16,1.1057694883306462e+17,1117381131488447.0,344222701073.8434,2915895599581.4497,277144176336719.12,2969445414862199.0,8579044948883345.0
151576.73573804603,9.763067304375778e+16,1.1143492179925149e+17,1117381131494910.5,344222701075.83405,2915895599598.2773,277144176338098.5,2969445414866554.0,9437017914493348.0
166735.40931185064,9.763067304408482e+16,1.1237869203924566e+17,1117381131498653.6,344222701076.98737,2915895599608.025,277144176338897.28,2969445414869071.5,1.0380788154153472e+16
183409.95024303574,9.763067304444202e+16,1.1341683927579355e+17,1117381131502740.2,344222701078.2463,2915895599618.6655,277144176339769.62,2969445414871820.0,1.1418935390336508e+16
201751.94526733932,9.763067304483483e+16,1.1455880120278704e+17,1117381131507237.5,344222701079.6315,2915895599630.383,277144176340728.97,2969445414874843.5,1.256089731692868e+16
221928.13979407327,9.7630673045267e+16,1.1581495928229696e+17,1117381131512181.8,344222701081.155,2915895599643.2563,277144176341784.8,2969445414878173.5,1.3817055395996884e+16
244121.9537734806,9.763067304574243e+16,1.1719673312113582e+17,1117381131517623.4,344222701082.83044,2915895599657.4243,277144176342946.06,2969445414881834.0,1.5198829234350348e+16
268535.1491508287,9.763067304626523e+16,1.1871668428502677e+17,1117381131523606.9,344222701084.6741,2915895599673.015,277144176344222.75,2969445414885861.0,1.6718780397706982e+16
295389.6640659116,9.763067304684058e+16,1.2038863049411982e+17,1117381131530190.2,344222701086.7015,2915895599690.151,277144176345628.72,2969445414890290.0,1.8390726606212412e+16
324929.6304725028,9.763067304747318e+16,1.2222777123798613e+17,1117381131537430.0,344222701088.93207,2915895599709.01,277144176347174.1,2969445414895164.0,2.0229867349432268e+16
357423.5935197531,9.763067304816925e+16,1.2425082595201424e+17,1117381131545396.8,344222701091.3858,2915895599729.7573,277144176348874.03,2969445414900532.0,2.2252922062749388e+16
393166.95287172846,9.763067304893477e+16,1.2647618601133334e+17,1117381131554158.9,344222701094.08435,2915895599752.5737,277144176350744.47,2969445414906420.5,2.4478282121286296e+16
432484.6481589014,9.763067304977706e+16,1.2892408192398862e+17,1117381131563796.5,344222701097.0534,2915895599777.672,277144176352801.34,2969445414912907.0,2.69261780330816e+16
475734.11297479155,9.763067305070323e+16,1.316167672432698e+17,1117381131574399.5,344222701100.31964,2915895599805.281,277144176355064.5,2969445414920035.5,2.961886335141602e+16
523308.52427227073,9.763067305172234e+16,1.3457872087106376e+17,1117381131586062.1,344222701103.912,2915895599835.6514,277144176357553.66,2969445414927891.0,3.2580816978169024e+16
