t(s),Total solute volume 1,Total retention volume 1,Total 1 volume 1,Total 2 volume 1,Total 3 volume 1,Total 4 volume 1,Total 5 volume 1,Total 6 volume 1
1.0,2885482272078412.0,2892658860307515.5,7176588229099.147,0.0,0.0,0.0,0.0,0.0
2.1,4135778204232105.5,4648847196964809.0,10286244116086.945,53179574538.19495,302142889520.27893,7618080445896.592,179112082588627.97,315697263118028.6
3.3100000000000005,4954447092045590.0,6229886694135661.0,12322384987465.162,133757210243.00935,759949336703.4673,19162672643015.668,450465170688206.3,792595667224446.5
4.641000000000001,5551574799438787.0,7796363390315723.0,13807522912983.17,236185662422.45596,1341902841565.8137,33841012382865.883,795545033952912.5,1400016933124192.0
6.105100000000002,6009897481392810.0,9413410667925328.0,14947433911355.666,358414259556.286,2036352724511.2605,51361101879081.586,1207561176024388.0,2127248707733647.5
7.7156100000000025,6372524776772691.0,1.1119209301918728e+16,15849337490416.076,499802026157.5486,2839657480491.3013,71632981868342.47,1684441257705535.0,2971421488575103.5
9.487171000000004,6665385348886010.0,1.294183001970855e+16,16577721747216.305,660488097312.7467,3752607812928.5093,94678707544739.9,2226730756006527.0,3934044389613826.5
11.435888100000005,6905483629262295.0,1.4905197824509234e+16,17174879007040.969,841131028520.9392,4778945538229.428,120595131622527.83,2836725563480886.0,5019598544569750.0
13.579476910000007,7104632474095974.0,1.703172606095015e+16,17670189444913.207,1042783264579.3958,5924650393249.368,149536045653141.6,3518056217694823.5,6234863700403469.0
15.937424601000009,7271376185616196.0,1.9343688357322804e+16,18084903899785.652,1266825801351.762,7197568826713.287,181702953941516.3,4275473303431293.0,7588586615805963.0
18.53116706110001,7412084180656147.0,2.1864041092566184e+16,18434863976187.395,1514934778599.015,8607224207387.638,217340441717004.06,5114740026589373.0,9091319420641488.0
21.384283767210015,7531616202259167.0,2.461698492268678e+16,18732156515455.83,1789066399953.5913,10164731158776.184,256734195848573.0,6042586637288032.0,1.0755361933216832e+16
24.522712143931017,7633749507877180.0,2.7628396541840852e+16,18986176070570.734,2091453553716.8186,11882776373634.5,300210736482334.94,7066704777773671.0,1.2594771113709762e+16
27.97498335832412,7721464958487821.0,3.0926196275340876e+16,19204336448494.652,2424610484143.1587,13775645169517.531,348138344967205.2,8195769773573546.0,1.4625418606210106e+16
31.772481694156536,7797145151056690.0,3.4540687139533736e+16,19392563492422.68,2791343406086.8374,15859281814336.908,400928895749111.6,9439484066633822.0,1.6865085837381196e+16
35.949729863572195,7862715437113013.0,3.8504886307279064e+16,19555645814071.195,3194765795452.519,18151376420953.85,459040421849844.2,1.0808637829528862e+16,1.933359083075684e+16
40.544702849929415,7919746587584823.0,4.2854862306906184e+16,19697490135029.773,3638317569476.4175,20671473946037.19,522980314619845.9,1.2315184454906986e+16,2.205294366814404e+16
45.59917313492236,7969530970779349.0,4.763008718491536e+16,19821310751720.938,4125787657622.2686,23441102457751.324,593309102074908.1,1.3972329629943366e+16,2.5047529281250596e+16
51.1590904484146,8013140002299200.0,5.2873810608785896e+16,19929772421131.406,4661339637774.798,26483918824980.254,670644778098349.5,1.5794633356770372e+16,2.834431744073412e+16
57.27499949325607,8051468084439503.0,5.86334616500866e+16,20025099644053.043,5249540216722.974,29825870573611.91,755667673391225.9,1.7798124712903614e+16,3.1973100668917836e+16
64.00249944258168,8085266629346875.0,6.4961083340702456e+16,20109161285298.29,5895390392304.48,33495372987293.25,849125871769516.0,2.0000429441719464e+16,3.59667614732017e+16
71.40274938683986,8115170694118213.0,7.191380480430782e+16,20183536818807.92,6604359160166.938,37523500675673.305,951841184233659.5,2.242091066845867e+16,4.036157086084269e+16
79.54302432552385,8141720038686898.0,7.955435570098395e+16,20249568701475.547,7382419628065.455,41944192833240.555,1064715699330080.0,2.5080823178934668e+16,4.519752060286954e+16
88.49732675807624,8165375924357819.0,8.795162780980685e+16,20308404153389.367,8236087378564.733,46794471286911.61,1188738932349671.5,2.8003481791479684e+16,5.0518692198801e+16
98.34705943388387,8186534625671804.0,9.71812887675073e+16,20361028763676.98,9172460878275.244,52114670188102.99,1324995598217503.5,3.121444440581847e+16,5.637366597796952e+16
109.18176537727226,8205538382572860.0,1.0732645325361114e+17,20408293730036.54,10199263668104.098,57948675843843.41,1474674033668684.5,3.4741710328871776e+16,6.281597427525577e+16
121.09994191499949,8222684342366140.0,1.1847841724667992e+17,20450938098604.63,11324887983094.373,64344174693918.16,1639075293474059.8,3.861593445678769e+16,6.990460315327661e+16
134.20993610649944,8238231911053179.0,1.3073746136129933e+17,20489607047728.832,12558439340026.197,71352906814367.98,1819622942955405.0,4.287065783187425e+16,7.770454772221458e+16
148.6309297171494,8252408837424378.0,1.442137297037727e+17,20524867019935.855,13909781493115.775,79030921545192.23,2017873564589480.2,4.754255498722984e+16,8.628742674447069e+16
164.49402268886433,8265416281263788.0,1.5902819115054384e+17,20557218327248.473,15389580989333.062,87438830881680.83,2235527989821583.8,5.267169833310791e+16,9.573216291615197e+16
181.94342495775078,8277433062569730.0,1.7531369045276643e+17,20587105719576.96,17009350351049.332,96642055111623.28,2474443257874622.5,5.83018396175285e+16,1.0612573600361152e+17
201.13776745352587,8288619247147095.0,1.932160970990326e+17,20614927302577.543,18781488670571.13,106711053799961.45,2736645290824687.0,6.448070819696898e+16,1.1756401689431875e+17
222.25154419887846,8299119191956237.0,2.128955604219499e+17,20641042111851.11,20719318114108.266,117721533592638.66,3024342257886275.0,7.126032546618402e+16,1.3015269161210456e+17
245.47669861876633,8309064148797495.0,2.3452788000849254e+17,20665776588662.805,22837114497459.934,129754622407409.48,3339938580952581.5,7.869733430146262e+16,1.440082854637857e+17
271.024368480643,8318574505507611.0,2.5830600106351584e+17,20689430154103.598,25150129708249.676,142896997378780.16,3686049507077748.5,8.685334174790877e+16,1.5925929874578058e+17
299.1268053287073,8327761728547232.0,2.8444164497456538e+17,20712280040571.7,27674603306917.08,157240951410089.2,4065516140736169.5,9.579527240426901e+16,1.7604746686625494e+17
330.03948586157804,8336730058690001.0,3.1316708592698304e+17,20734585509183.78,30427760139555.14,172884380350317.8,4481420788154809.5,1.0559572900032925e+17,1.94529159353809e+17
364.0434344477359,8345578001757015.0,3.4473708501338374e+17,20756591557434.64,33427790241272.42,189930669663257.03,4937102416438166.0,1.1633335549011262e+17,2.1487693405361373e+17
401.44777789250946,8354399648411314.0,3.794309938618196e+17,20778532201707.68,36693806703975.445,208488456019941.22,5436171970073680.0,1.28093196563368e+17,2.3728126488504013e+17
442.5925556817604,8363285850508903.0,4.1755504036277645e+17,20800633403020.656,40245776537451.54,228671235579080.56,5982527215044988.0,1.4096704576874984e+17,2.619524638829532e+17
487.8518112499365,8372325276058097.0,4.5944480959681626e+17,20823115690854.164,44104418884583.836,250596786922066.5,6580366694383458.0,1.55053772402234e+17,2.891228209026433e+17
537.6369923749302,8381605360199370.0,5.0546793354264506e+17,20846196528368.72,48291064287019.18,274386372829516.28,7234202276650935.0,1.7045961489902195e+17,3.1904898737312723e+17
592.4006916124232,8391213165572635.0,5.5602700357221754e+17,20870092452256.227,52827468075220.31,300163681544032.6,7948869658636745.0,1.8729842563127846e+17,3.520146338746581e+17
652.6407607736655,8401236161807073.0,6.115627201106071e+17,20895021011437.742,57735570430265.47,328053465163384.1,8729536043616172.0,2.0569184871427194e+17,3.883334151343069e+17
718.9048368510321,8411762930506210.0,6.725572941550579e+17,20921202520457.664,63037195306096.19,358179830758645.56,9581704055232780.0,2.2576940862225773e+17,4.283522803184746e+17
791.7953205361354,8422883798880233.0,7.395381156200893e+17,20948861635414.91,68753680304066.99,390664139245840.44,1.0511210763263914e+16,2.4766848308599782e+17,4.724551712907617e+17
871.9748525897489,8434691401987416.0,8.130817037268755e+17,20978228752333.887,74905429875316.36,425622468630885.56,1.1524220490794374e+16,2.7153412887760832e+17,5.210671568292247e+17
960.1723378487239,8447281170291298.0,8.938179549275578e+17,21009541219785.797,81511385036339.9,463162602823357.75,1.2627209843426634e+16,2.975187237048392e+17,5.746590566799209e+17
1057.1895716335964,8460751735833084.0,9.824347042172835e+17,21043044349096.125,88588404292135.97,503380515756870.8,1.382694315257388e+16,3.257813815963228e+17,6.337526157681531e+17
1163.9085287969563,8475205246686048.0,1.0796826162421047e+18,21078992196434.91,96150552867051.84,546356334185240.06,1.513043626154695e+16,3.564870929799568e+17,6.989262958746668e+17
1281.299381676652,8490747575437496.0,1.186380423511009e+18,21117648081341.254,104208300861017.34,592149782466641.4,1.654490631331634e+16,3.898055343358765e+17,7.708217595549679e+17
1410.4293198443174,8507488403197833.0,1.3034205304766377e+18,21159284795665.46,112767635797055.23,640795140147093.5,1.8077704935234216e+16,4.259094861463696e+17,8.501511289310952e+17
1552.4722518287492,8525541156040028.0,1.4317750045510382e+18,21204184445486.152,121829101404754.88,692295779348551.6,1.973623197718549e+16,4.6497279230807994e+17,9.37705110044539e+17
1708.7194770116243,8545022765856102.0,1.5725019786538248e+18,21252637856328.227,131386782541179.61,746618394697443.4,2.152782677153309e+16,5.0716778983174285e+17,1.0343620814696017e+18
1880.5914247127869,8566053222446562.0,1.7267524951489674e+18,21304943459150.035,141427265933145.4,803687094073939.9,2.345963378092186e+16,5.5266213536192915e+17,1.1410982534802052e+18
2069.6505671840655,8588754878383484.0,1.8957778286445583e+18,21361405561443.188,151928617819114.44,863377583182841.9,2.5538439529576388e+16,6.016149558922789e+17,1.2589990107377592e+18
2277.615623902472,8613251463053713.0,2.0809373358863265e+18,21422331895026.03,162859432224460.7,925511748863278.1,2.7770477933937612e+16,6.541722564169692e+17,1.3892715565593882e+18
2506.3771862927197,8639666757678992.0,2.283706895806824e+18,21488030320639.383,174178016847634.6,989853021357413.2,3.0161201632089772e+16,7.104615288598627e+17,1.5332589794886666e+18
2758.0149049219917,8668122879579724.0,2.5056880227841475e+18,21558804560678.86,185831796286277.9,1056102968325202.6,3.2715017745480456e+16,7.705855265053306e+17,1.692455862084583e+18
3034.816395414191,8698738122280082.0,2.748617762525935e+18,21634948827244.664,197757023032732.72,1123899634382857.1,3.543498779096263e+16,8.346151986642413e+17,1.8685255463422044e+18
3339.2980349556105,8731624299292289.0,3.0143795139983314e+18,21716741215773.95,209878893251462.62,1192818177631295.0,3.83224933050861e+16,9.025818239918228e+17,2.0633191585900342e+18
3674.227838451172,8766883544929542.0,3.3050149636937815e+18,21804435748229.836,222112164285994.84,1262374354656779.2,4.1376871255525256e+16,9.744684402835265e+17,2.2788964776551104e+18
4042.6506222962894,8804604533601094.0,3.6227373715293763e+18,21898252969977.45,234362361204135.28,1332031351199484.0,4.459502657571715e+16,1.0502007454617737e+18,2.517548702992921e+18
4447.915684525919,8844858122204152.0,3.9699465094367626e+18,21998369111823.336,246527638456284.78,1401210335591239.2,4.797103338622296e+16,1.1296377445082045e+18,2.781823137076978e+18
4893.707252978511,8887692378540611.0,4.349245630818983e+18,22104903725014.85,258501324358521.56,1469304894655839.2,5.149574103679647e+16,1.2125625232025265e+18,3.0745497630783657e+18
5384.077978276362,8933127120908749.0,4.763460926268692e+18,22217906100466.59,270175127021968.4,1535699233365943.2,5.515640735099852e+16,1.2986736783000586e+18,3.3988696212302495e+18
5923.485776103998,8981148029528838.0,5.215664012783698e+18,22337340623078.465,281442910194906.03,1599789621266361.8,5.893638695276978e+16,1.387578060311822e+18,3.758264847617505e+18
6516.834353714399,9031700537105492.0,5.70919809046829e+18,22463071576737.438,292204871467265.8,1661008136788810.5,6.281490898972325e+16,1.4787856363821376e+18,4.1565901684794993e+18
7169.5177890858395,9084683768407826.0,6.247708481843834e+18,22594848071232.035,302371873279222.25,1718847294191800.0,6.676698374674211e+16,1.5717074004181855e+18,4.5981055998949535e+18
7887.469567994424,9139944902447094.0,6.835178331534774e+18,22732290020223.49,311869603749332.0,1772883719655363.0,7.076348114573682e+16,1.6656573376973476e+18,5.087510082175814e+18
8677.216524793868,9197274435796170.0,7.475970275183064e+18,22874876360477.227,320642193069669.3,1822798750133889.0,7.47714244517533e+16,1.7598594559637599e+18,5.629975804512169e+18
9545.938177273256,9256402923407782.0,8.174874870986373e+18,23021936945832.383,328654897926268.94,1868393750886031.8,7.875453810954008e+16,1.8534607885348285e+18,6.231183070832841e+18
10501.531995000581,9316999845961518.0,8.93716651048029e+18,23172649730135.215,335895505026310.44,1909598164560721.0,8.267407792730306e+16,1.9455510201766257e+18,6.897355746211074e+18
11552.68519450064,9378675276729654.0,9.768667375550603e+18,23326044912950.953,342374203369368.0,1946468862301657.8,8.648995350929845e+16,2.0351889535921984e+18,7.635297624061796e+18
12708.953713950705,9440984969048552.0,1.0675819782012264e+19,23481017592784.434,348121831150809.2,1979180253367089.0,9.016212638182138e+16,2.1214354114810775e+18,8.452430476078202e+18
13980.849085345777,9503439331405488.0,1.1665766954454604e+19,23636350089323.453,353186601405151.4,2008005735468448.0,9.365223345432405e+16,2.2033913757665728e+18,9.35683507721532e+18
15379.933993880357,9565516482559798.0,1.2746441937205266e+19,23790744413279.426,357629621003323.6,2033292265205822.2,9.692534699015146e+16,2.2802392653951555e+18,1.0357297095706798e+19
16918.927393268394,9626679182901494.0,1.392666400642981e+19,23942864376954.203,361519700476948.0,2055430869855460.2,9.99517440382522e+16,2.351284362682267e+18,1.1463360327091675e+19
18611.820132595236,9686394945959498.0,1.5216241671144507e+19,24091385614270.402,364928065445941.25,2074826569899186.8,1.0270852730345878e+17,2.4159926797412214e+18,1.2685390223132942e+19
20474.00214585476,9744158103966964.0,1.6626081210484656e+19,24235050460812.07,367923591805137.3,2091871251358231.8,1.0518092395779328e+17,2.4740212037654216e+18,1.4034650894763872e+19
22522.40236044024,9799512123471820.0,1.8168299763503342e+19,24372723455762.527,370569084954914.5,2106922452700408.5,1.0736309672521254e+17,2.525236654385731e+18,1.5523398636007803e+19
24775.642596484264,9852070149753708.0,1.985634231836997e+19,24503442438655.22,372918924986860.8,2120289906811586.8,1.0925833772563691e+17,2.5697197436083794e+18,1.716499445461198e+19
27254.206856132692,9901531705400898.0,2.1705102551876526e+19,24626460081004.754,375018148331809.3,2132230250464939.5,1.1087857982582456e+17,2.607753441722764e+18,1.8974037123763634e+19
29980.627541745966,9947693744675000.0,2.373104830342213e+19,24741271380027.707,376902791174883.44,2142948918312768.0,1.1224324550674584e+17,2.639795752638285e+18,2.096651701855144e+19
32979.69029592056,9990454870531902.0,2.595235342630111e+19,24847624146970.617,378601138175796.56,2152607201531901.0,1.1337754559515294e+17,2.6664396620951204e+18,2.315998970777636e+19
36278.65932551262,1.0029812373342428e+16,2.838903869324937e+19,24945511642036.777,380135438822685.8,2161331985018852.5,1.1431042126444054e+17,2.6883648122087916e+18,2.55737672344673e+19
39907.525258063884,1.0065852695757034e+16,3.106312517790807e+19,25035148859245.22,381523678990734.44,2169225816309613.2,1.1507237416320392e+17,2.706286648045226e+18,2.8229124518359687e+19
43899.277783870275,1.0098736776789592e+16,3.3998803951256842e+19,25116936075211.09,382781102221959.94,2176375564553177.0,1.1569343844967128e+17,2.720908976007533e+18,3.1149518526420025e+19
48290.20556225731,1.0128682305452846e+16,3.722262595194147e+19,25191414711557.42,383921320169944.44,2182858750806400.5,1.1620151177083904e+17,2.7328849995768274e+18,3.436081878680266e+19
53120.22611848305,1.0155945111293718e+16,4.0763715533898e+19,25259221050671.363,384956989023834.56,2188747412541646.5,1.1662118816529402e+17,2.742790153598736e+18,3.789154928339998e+19
58433.24873033136,1.0180801723184974e+16,4.465401057629126e+19,25321042857063.69,385900126175566.75,2194109920913837.2,1.1697314227940398e+17,2.751107862556197e+18,4.177314343864245e+19
64277.57360336451,1.0203534621325526e+16,4.892853133204186e+19,25377582697095.258,386762186907319.6,2199011429944630.8,1.1727402320691698e+17,2.758227217830593e+18,4.604021540518353e+19
70706.33096370097,1.0224421037794494e+16,5.362567957489272e+19,25429530084428.867,387554020947601.94,2203513638696281.8,1.1753674738074917e+17,2.764449963800831e+18,5.073085194548355e+19
77777.96406007107,1.024372549232951e+16,5.878756922198458e+19,25477542915487.605,388285800539259.06,2207674388062299.5,1.1777104502598765e+17,2.770003375769717e+18,5.588692963796501e+19
85556.76046607818,1.0261695713412916e+16,6.446038952522007e+19,25522237324627.887,388966973837805.7,2211547399093666.5,1.1798411496741667e+17,2.775055629875788e+18,6.155446204805318e+19
94113.436512686,1.0278561272896026e+16,7.069480211195055e+19,25564184288251.008,389606264284605.44,2215182271132682.5,1.1818127015187979e+17,2.7797309194561096e+18,6.778398100835006e+19
103525.78016395462,1.0294534137706184e+16,7.754637354372029e+19,25603910996958.91,390211712563060.44,2218624721075223.0,1.1836649754953758e+17,2.7841225422646205e+18,7.463095552942395e+19
113879.3581803501,1.0309810406659886e+16,8.507604551754411e+19,25641905175232.95,390790756461714.2,2221917038049588.8,1.1854289817070912e+17,2.78830316937443e+18,8.215625128989257e+19
125268.29399838512,1.032457264708421e+16,9.335064526951005e+19,25678620892918.87,391350316148531.6,2225098567994322.5,1.1871300576976741e+17,2.7923322720902205e+18,9.042663329149813e+19
137796.12339822366,1.0338992428398034e+16,1.0244343908537111e+20,25714484866579.684,391896894919490.44,2228206286700876.2,1.1887900263354133e+17,2.7962611433909714e+18,9.951531412925168e+19
151576.73573804603,1.0353232822392192e+16,1.1243473203357706e+20,25749902678026.504,392436673970649.2,2231275338631987.0,1.1904285855503861e+17,2.800136127997156e+18,1.0950255035228712e+20
166735.40931185064,1.0367450758390672e+16,1.2341251713575623e+20,25785264631921.19,392975601669616.2,2234339544471785.0,1.1920641809610464e+17,2.804000648554136e+18,1.2047628951793693e+20
183409.95024303574,1.0381799205938372e+16,1.3547317717369769e+20,25820951184413.586,393519476289539.6,2237431871511013.2,1.1937145608295174e+17,2.807896493807472e+18,1.3253287065230223e+20
201751.94526733932,1.039642919945047e+16,1.487222422234621e+20,25857337978718.703,394074022752758.75,2240584869976862.5,1.1953971385433624e+17,2.811864689211193e+18,1.4577778087496635e+20
221928.13979407327,1.0411491737838906e+16,1.632752058076004e+20,25894800569744.52,394644964635533.75,2243831082421520.0,1.197129318281542e+17,2.8159461397699697e+18,1.6032647087341666e+20
244121.9537734806,1.042713959510046e+16,1.7925840226493524e+20,25933718927270.19,395238092797823.56,2247203433923652.0,1.1989286665393378e+17,2.820182202021524e+18,1.7630523168141882e+20
268535.1491508287,1.0443529082986256e+16,1.9680994748502934e+20,25974481819943.203,395859332196742.3,2250735611964010.0,1.2008131557641094e+17,2.824615138137707e+18,1.9385213493280542e+20
295389.6640659116,1.0460821790234784e+16,2.1608074463286028e+20,26017491140989.21,396514807811678.2,2254462441251068.0,1.2028013642233533e+17,2.8292886116362737e+18,2.1311803806827194e+20
324929.6304725028,1.047918633314263e+16,2.372355556855002e+20,26063166262118.535,397210910999177.6,2258420260990529.5,1.2049126771861029e+17,2.8342481579716787e+18,2.342676553791381e+20
357423.5935197531,1.0498800141690566e+16,2.604541386325301e+20,26111948475864.81,397954367195523.3,2262647309817649.0,1.2071674921964189e+17,2.839541664858893e+18,2.574806947046847e+20
