t(s),Total solute volume 1,Total retention volume 1,Total 1 volume 1,Total 2 volume 1,Total 3 volume 1,Total 4 volume 1,Total 5 volume 1,Total 6 volume 1
1.0,2044462445176390.5,2045241361850040.5,778916673647.7137,0.0,0.0,0.0,0.0,0.0
2.1,3142112230041775.0,3143309338648664.5,1197108606885.9329,0.0,0.0,0.0,0.0,0.0
3.3100000000000005,4025770273957599.5,4027304046107725.5,1533772150135.5237,0.0,0.0,0.0,0.0,0.0
4.641000000000001,4815896362730698.0,4817731163826121.0,1834801095431.9531,0.0,0.0,0.0,0.0,0.0
6.105100000000002,5557435292088529.0,5559552610981001.0,2117318892464.9514,0.0,0.0,0.0,0.0,0.0
7.7156100000000025,6272989394694435.0,6275379331464170.0,2389936769735.6816,0.0,0.0,0.0,0.0,0.0
9.487171000000004,6975990552893236.0,6978648325012987.0,2657772119755.6016,0.0,0.0,0.0,0.0,0.0
11.435888100000005,7675360362337600.0,7678284586305323.0,2924223967713.916,0.0,0.0,0.0,0.0,0.0
13.579476910000007,8377524413006917.0,8380716153396257.0,3191740389329.0684,0.0,0.0,0.0,0.0,0.0
15.937424601000009,9087395974466412.0,9090858167749986.0,3462193283578.1973,0.0,0.0,0.0,0.0,0.0
18.53116706110001,9808885685170704.0,9812622757729120.0,3737072558426.845,0.0,0.0,0.0,0.0,0.0
21.384283767210015,1.0545158682439594e+16,1.0549176266533978e+16,4017584094372.2056,0.0,0.0,0.0,0.0,0.0
24.522712143931017,1.1298737583815766e+16,1.130304227279494e+16,4304688979151.899,0.0,0.0,0.0,0.0,0.0
27.97498335832412,1.20715018093565e+16,1.2076100912606022e+16,4599103249559.828,0.0,0.0,0.0,0.0,0.0
31.772481694156536,1.2864616199053472e+16,1.286951746974897e+16,4901270695535.185,0.0,0.0,0.0,0.0,0.0
35.949729863572195,1.367841695116362e+16,1.3683628270567636e+16,5211319404022.24,0.0,0.0,0.0,0.0,0.0
40.544702849929415,1.4512282042023626e+16,1.4517811054414082e+16,5529012390461.266,0.0,0.0,0.0,0.0,0.0
45.59917313492236,1.5364512088620944e+16,1.5370365790829786e+16,5853702208851.922,0.0,0.0,0.0,0.0,0.0
51.1590904484146,1.6232244273297284e+16,1.6238428571455388e+16,6184298158106.869,0.0,0.0,0.0,0.0,0.0
57.27499949325607,1.7111416475095284e+16,1.711793572771187e+16,6519252616553.772,0.0,0.0,0.0,0.0,0.0
64.00249944258168,1.7996792218375396e+16,1.800364878892249e+16,6856570547110.126,0.0,0.0,0.0,0.0,0.0
71.40274938683986,1.888205080950462e+16,1.8889244653342984e+16,7193843838354.147,0.0,0.0,0.0,0.0,0.0
79.54302432552385,1.9759942074790708e+16,1.976747038504864e+16,7528310257915.048,0.0,0.0,0.0,0.0,0.0
88.49732675807624,2.062250171398193e+16,2.063035864948159e+16,7856935499682.945,0.0,0.0,0.0,0.0,0.0
98.34705943388387,2.1461321008783428e+16,2.146949752472307e+16,8176515939638.243,0.0,0.0,0.0,0.0,0.0
109.18176537727226,2.226786261064762e+16,2.2276346409594948e+16,8483798947336.373,0.0,0.0,0.0,0.0,0.0
121.09994191499949,2.3033811503389188e+16,2.304258711998778e+16,8775616598577.403,0.0,0.0,0.0,0.0,0.0
134.20993610649944,2.375144650655909e+16,2.3760495533772944e+16,9049027213850.797,0.0,0.0,0.0,0.0,0.0
148.6309297171494,2.4414012992695716e+16,2.4423314450054976e+16,9301457359239.68,0.0,0.0,0.0,0.0,0.0
164.49402268886433,2.5016072625020628e+16,2.5025603460113004e+16,9530835092370.855,0.0,0.0,0.0,0.0,0.0
181.94342495775078,2.5553802154015716e+16,2.5563537857816096e+16,9735703800385.158,0.0,0.0,0.0,0.0,0.0
201.13776745352587,2.602521209443673e+16,2.603512739995085e+16,9915305514114.998,0.0,0.0,0.0,0.0,0.0
222.25154419887846,2.643025870960127e+16,2.644032833317055e+16,10069623569217.088,0.0,0.0,0.0,0.0,0.0
245.47669861876633,2.6770829885820332e+16,2.678102926305049e+16,10199377230123.848,0.0,0.0,0.0,0.0,0.0
271.024368480643,2.7050597069016936e+16,2.706090303429248e+16,10305965275554.11,0.0,0.0,0.0,0.0,0.0
299.1268053287073,2.7274740318133028e+16,2.7285131679381144e+16,10391361248130.607,0.0,0.0,0.0,0.0,0.0
330.03948586157804,2.7449569560860736e+16,2.746002753001793e+16,10457969157224.12,0.0,0.0,0.0,0.0,0.0
364.0434344477359,2.7582079460554028e+16,2.759258791444244e+16,10508453888438.096,0.0,0.0,0.0,0.0,0.0
401.44777789250946,2.767948491596898e+16,2.769003048020344e+16,10545564234430.662,0.0,0.0,0.0,0.0,0.0
442.5925556817604,2.7748786723544624e+16,2.7759358690961868e+16,10571967417314.734,0.0,0.0,0.0,0.0,0.0
487.8518112499365,2.7796411302750172e+16,2.7807001414578372e+16,10590111828222.16,0.0,0.0,0.0,0.0,0.0
537.6369923749302,2.782795542346638e+16,2.7838557553237776e+16,10602129771417.959,0.0,0.0,0.0,0.0,0.0
592.4006916124232,2.7848049199985244e+16,2.7858658985251796e+16,10609785266616.87,0.0,0.0,0.0,0.0,0.0
652.6407607736655,2.786033205451465e+16,2.7870946519406052e+16,10614464891363.844,0.0,0.0,0.0,0.0,0.0
718.9048368510321,2.786033205451465e+16,2.7870946519406052e+16,10614464891363.844,0.0,0.0,0.0,0.0,0.0
791.7953205361354,2.786033205451465e+16,2.7870946519406052e+16,10614464891363.844,0.0,0.0,0.0,0.0,0.0
871.9748525897489,2.786033205451465e+16,2.7870946519406052e+16,10614464891363.844,0.0,0.0,0.0,0.0,0.0
960.1723378487239,2.786033205451465e+16,2.7870946519406052e+16,10614464891363.844,0.0,0.0,0.0,0.0,0.0
1057.1895716335964,2.786033205451465e+16,2.7870946519406052e+16,10614464891363.844,0.0,0.0,0.0,0.0,0.0
1163.9085287969563,2.786033205451465e+16,2.7870946519406052e+16,10614464891363.844,0.0,0.0,0.0,0.0,0.0
1281.299381676652,2.786033205451465e+16,2.7870946519406052e+16,10614464891363.844,0.0,0.0,0.0,0.0,0.0
1410.4293198443174,2.786033205451465e+16,2.7870946519406052e+16,10614464891363.844,0.0,0.0,0.0,0.0,0.0
1552.4722518287492,2.786033205451465e+16,2.7870946519406052e+16,10614464891363.844,0.0,0.0,0.0,0.0,0.0
1708.7194770116243,2.786033205451465e+16,2.7870946519406052e+16,10614464891363.844,0.0,0.0,0.0,0.0,0.0
1880.5914247127869,2.786033205451465e+16,2.7870946519406052e+16,10614464891363.844,0.0,0.0,0.0,0.0,0.0
2069.6505671840655,2.786033205451465e+16,2.7870946519406052e+16,10614464891363.844,0.0,0.0,0.0,0.0,0.0
2277.615623902472,2.786033205451465e+16,2.7870946519406052e+16,10614464891363.844,0.0,0.0,0.0,0.0,0.0
2506.3771862927197,2.786033205451465e+16,2.7870946519406052e+16,10614464891363.844,0.0,0.0,0.0,0.0,0.0
2758.0149049219917,2.786033205451465e+16,2.7870946519406052e+16,10614464891363.844,0.0,0.0,0.0,0.0,0.0
3034.816395414191,2.786033205451465e+16,2.7870946519406052e+16,10614464891363.844,0.0,0.0,0.0,0.0,0.0
3339.2980349556105,2.786033205451465e+16,2.7870946519406052e+16,10614464891363.844,0.0,0.0,0.0,0.0,0.0
3674.227838451172,2.786033205451465e+16,2.7870946519406052e+16,10614464891363.844,0.0,0.0,0.0,0.0,0.0
4042.6506222962894,2.786033205451465e+16,2.7870946519406052e+16,10614464891363.844,0.0,0.0,0.0,0.0,0.0
4447.915684525919,2.786033205451465e+16,2.7870946519406052e+16,10614464891363.844,0.0,0.0,0.0,0.0,0.0
4893.707252978511,2.786033205451465e+16,2.7870946519406052e+16,10614464891363.844,0.0,0.0,0.0,0.0,0.0
5384.077978276362,2.786033205451465e+16,2.7870946519406052e+16,10614464891363.844,0.0,0.0,0.0,0.0,0.0
5923.485776103998,2.786033205451465e+16,2.7870946519406052e+16,10614464891363.844,0.0,0.0,0.0,0.0,0.0
6516.834353714399,2.786033205451465e+16,2.7870946519406052e+16,10614464891363.844,0.0,0.0,0.0,0.0,0.0
7169.5177890858395,2.786033205451465e+16,2.7870946519406052e+16,10614464891363.844,0.0,0.0,0.0,0.0,0.0
7887.469567994424,2.786033205451465e+16,2.7870946519406052e+16,10614464891363.844,0.0,0.0,0.0,0.0,0.0
8677.216524793868,2.786033205451465e+16,2.7870946519406052e+16,10614464891363.844,0.0,0.0,0.0,0.0,0.0
9545.938177273256,2.786033205451465e+16,2.7870946519406052e+16,10614464891363.844,0.0,0.0,0.0,0.0,0.0
10501.531995000581,2.786033205451465e+16,2.7870946519406052e+16,10614464891363.844,0.0,0.0,0.0,0.0,0.0
11552.68519450064,2.786033205451465e+16,2.7870946519406052e+16,10614464891363.844,0.0,0.0,0.0,0.0,0.0
12708.953713950705,2.786033205451465e+16,2.7870946519406052e+16,10614464891363.844,0.0,0.0,0.0,0.0,0.0
13980.849085345777,2.786033205451465e+16,2.7870946519406052e+16,10614464891363.844,0.0,0.0,0.0,0.0,0.0
15379.933993880357,2.786033205451465e+16,2.7870946519406052e+16,10614464891363.844,0.0,0.0,0.0,0.0,0.0
16918.927393268394,2.786033205451465e+16,2.7870946519406052e+16,10614464891363.844,0.0,0.0,0.0,0.0,0.0
18611.820132595236,2.786033205451465e+16,2.7870946519406052e+16,10614464891363.844,0.0,0.0,0.0,0.0,0.0
20474.00214585476,2.786033205451465e+16,2.7870946519406052e+16,10614464891363.844,0.0,0.0,0.0,0.0,0.0
22522.40236044024,2.786033205451465e+16,2.7870946519406052e+16,10614464891363.844,0.0,0.0,0.0,0.0,0.0
24775.642596484264,2.786033205451465e+16,2.7870946519406052e+16,10614464891363.844,0.0,0.0,0.0,0.0,0.0
27254.206856132692,2.786033205451465e+16,2.7870946519406052e+16,10614464891363.844,0.0,0.0,0.0,0.0,0.0
29980.627541745966,2.786033205451465e+16,2.7870946519406052e+16,10614464891363.844,0.0,0.0,0.0,0.0,0.0
32979.69029592056,2.786033205451465e+16,2.7870946519406052e+16,10614464891363.844,0.0,0.0,0.0,0.0,0.0
36278.65932551262,2.786033205451465e+16,2.7870946519406052e+16,10614464891363.844,0.0,0.0,0.0,0.0,0.0
39907.525258063884,2.786033205451465e+16,2.7870946519406052e+16,10614464891363.844,0.0,0.0,0.0,0.0,0.0
43899.277783870275,2.786033205451465e+16,2.7870946519406052e+16,10614464891363.844,0.0,0.0,0.0,0.0,0.0
48290.20556225731,2.786033205451465e+16,2.7870946519406052e+16,10614464891363.844,0.0,0.0,0.0,0.0,0.0
53120.22611848305,2.786033205451465e+16,2.7870946519406052e+16,10614464891363.844,0.0,0.0,0.0,0.0,0.0
58433.24873033136,2.786033205451465e+16,2.7870946519406052e+16,10614464891363.844,0.0,0.0,0.0,0.0,0.0
64277.57360336451,2.786033205451465e+16,2.7870946519406052e+16,10614464891363.844,0.0,0.0,0.0,0.0,0.0
70706.33096370097,2.786033205451465e+16,2.7870946519406052e+16,10614464891363.844,0.0,0.0,0.0,0.0,0.0
77777.96406007107,2.786033205451465e+16,2.7870946519406052e+16,10614464891363.844,0.0,0.0,0.0,0.0,0.0
85556.76046607818,2.786033205451465e+16,2.7870946519406052e+16,10614464891363.844,0.0,0.0,0.0,0.0,0.0
94113.436512686,2.786033205451465e+16,2.7870946519406052e+16,10614464891363.844,0.0,0.0,0.0,0.0,0.0
103525.78016395462,2.786033205451465e+16,2.7870946519406052e+16,10614464891363.844,0.0,0.0,0.0,0.0,0.0
113879.3581803501,2.786033205451465e+16,2.7870946519406052e+16,10614464891363.844,0.0,0.0,0.0,0.0,0.0
125268.29399838512,2.786033205451465e+16,2.7870946519406052e+16,10614464891363.844,0.0,0.0,0.0,0.0,0.0
137796.12339822366,2.786033205451465e+16,2.7870946519406052e+16,10614464891363.844,0.0,0.0,0.0,0.0,0.0
151576.73573804603,2.786033205451465e+16,2.7870946519406052e+16,10614464891363.844,0.0,0.0,0.0,0.0,0.0
166735.40931185064,2.786033205451465e+16,2.7870946519406052e+16,10614464891363.844,0.0,0.0,0.0,0.0,0.0
183409.95024303574,2.786033205451465e+16,2.7870946519406052e+16,10614464891363.844,0.0,0.0,0.0,0.0,0.0
201751.94526733932,2.786033205451465e+16,2.7870946519406052e+16,10614464891363.844,0.0,0.0,0.0,0.0,0.0
221928.13979407327,2.786033205451465e+16,2.7870946519406052e+16,10614464891363.844,0.0,0.0,0.0,0.0,0.0
244121.9537734806,2.786033205451465e+16,2.7870946519406052e+16,10614464891363.844,0.0,0.0,0.0,0.0,0.0
268535.1491508287,2.786033205451465e+16,2.7870946519406052e+16,10614464891363.844,0.0,0.0,0.0,0.0,0.0
295389.6640659116,2.786033205451465e+16,2.7870946519406052e+16,10614464891363.844,0.0,0.0,0.0,0.0,0.0
324929.6304725028,2.786033205451465e+16,2.7870946519406052e+16,10614464891363.844,0.0,0.0,0.0,0.0,0.0
357423.5935197531,2.786033205451465e+16,2.7870946519406052e+16,10614464891363.844,0.0,0.0,0.0,0.0,0.0
393166.95287172846,2.786033205451465e+16,2.7870946519406052e+16,10614464891363.844,0.0,0.0,0.0,0.0,0.0
432484.6481589014,2.786033205451465e+16,2.7870946519406052e+16,10614464891363.844,0.0,0.0,0.0,0.0,0.0
475734.11297479155,2.786033205451465e+16,2.7870946519406052e+16,10614464891363.844,0.0,0.0,0.0,0.0,0.0
523308.52427227073,2.786033205451465e+16,2.7870946519406052e+16,10614464891363.844,0.0,0.0,0.0,0.0,0.0
575640.3766994978,2.786033205451465e+16,2.7870946519406052e+16,10614464891363.844,0.0,0.0,0.0,0.0,0.0
633205.4143694476,2.786033205451465e+16,2.7870946519406052e+16,10614464891363.844,0.0,0.0,0.0,0.0,0.0
696526.9558063925,2.786033205451465e+16,2.7870946519406052e+16,10614464891363.844,0.0,0.0,0.0,0.0,0.0
766180.6513870318,2.786033205451465e+16,2.7870946519406052e+16,10614464891363.844,0.0,0.0,0.0,0.0,0.0
842799.716525735,2.786033205451465e+16,2.7870946519406052e+16,10614464891363.844,0.0,0.0,0.0,0.0,0.0
927080.6881783085,2.786033205451465e+16,2.7870946519406052e+16,10614464891363.844,0.0,0.0,0.0,0.0,0.0
1019789.7569961395,2.786033205451465e+16,2.7870946519406052e+16,10614464891363.844,0.0,0.0,0.0,0.0,0.0
1121769.7326957537,2.786033205451465e+16,2.7870946519406052e+16,10614464891363.844,0.0,0.0,0.0,0.0,0.0
1233947.7059653292,2.786033205451465e+16,2.7870946519406052e+16,10614464891363.844,0.0,0.0,0.0,0.0,0.0
1357343.4765618623,2.786033205451465e+16,2.7870946519406052e+16,10614464891363.844,0.0,0.0,0.0,0.0,0.0
1493078.8242180487,2.786033205451465e+16,2.7870946519406052e+16,10614464891363.844,0.0,0.0,0.0,0.0,0.0
1642387.7066398538,2.786033205451465e+16,2.7870946519406052e+16,10614464891363.844,0.0,0.0,0.0,0.0,0.0
1806627.4773038393,2.786033205451465e+16,2.7870946519406052e+16,10614464891363.844,0.0,0.0,0.0,0.0,0.0
1987291.2250342234,2.786033205451465e+16,2.7870946519406052e+16,10614464891363.844,0.0,0.0,0.0,0.0,0.0
2186021.347537646,2.786033205451465e+16,2.7870946519406052e+16,10614464891363.844,0.0,0.0,0.0,0.0,0.0
2404624.4822914107,2.786033205451465e+16,2.7870946519406052e+16,10614464891363.844,0.0,0.0,0.0,0.0,0.0
2645087.9305205517,2.786033205451465e+16,2.7870946519406052e+16,10614464891363.844,0.0,0.0,0.0,0.0,0.0
2909597.723572607,2.786033205451465e+16,2.7870946519406052e+16,10614464891363.844,0.0,0.0,0.0,0.0,0.0
3200558.495929868,2.786033205451465e+16,2.7870946519406052e+16,10614464891363.844,0.0,0.0,0.0,0.0,0.0
3520615.345522855,2.786033205451465e+16,2.7870946519406052e+16,10614464891363.844,0.0,0.0,0.0,0.0,0.0
3872677.880075141,2.786033205451465e+16,2.7870946519406052e+16,10614464891363.844,0.0,0.0,0.0,0.0,0.0
4259946.668082655,2.786033205451465e+16,2.7870946519406052e+16,10614464891363.844,0.0,0.0,0.0,0.0,0.0
4685942.334890922,2.786033205451465e+16,2.7870946519406052e+16,10614464891363.844,0.0,0.0,0.0,0.0,0.0
5154537.568380014,2.786033205451465e+16,2.7870946519406052e+16,10614464891363.844,0.0,0.0,0.0,0.0,0.0
5669992.325218016,2.786033205451465e+16,2.7870946519406052e+16,10614464891363.844,0.0,0.0,0.0,0.0,0.0
6236992.5577398185,2.786033205451465e+16,2.7870946519406052e+16,10614464891363.844,0.0,0.0,0.0,0.0,0.0
6860692.8135138005,2.786033205451465e+16,2.7870946519406052e+16,10614464891363.844,0.0,0.0,0.0,0.0,0.0
7546763.0948651815,2.786033205451465e+16,2.7870946519406052e+16,10614464891363.844,0.0,0.0,0.0,0.0,0.0
8301440.4043517,2.786033205451465e+16,2.7870946519406052e+16,10614464891363.844,0.0,0.0,0.0,0.0,0.0
9131585.44478687,2.786033205451465e+16,2.7870946519406052e+16,10614464891363.844,0.0,0.0,0.0,0.0,0.0
10044744.98926556,2.786033205451465e+16,2.7870946519406052e+16,10614464891363.844,0.0,0.0,0.0,0.0,0.0
11049220.488192115,2.786033205451465e+16,2.7870946519406052e+16,10614464891363.844,0.0,0.0,0.0,0.0,0.0
12154143.537011327,2.786033205451465e+16,2.7870946519406052e+16,10614464891363.844,0.0,0.0,0.0,0.0,0.0
13369558.89071246,2.786033205451465e+16,2.7870946519406052e+16,10614464891363.844,0.0,0.0,0.0,0.0,0.0
14706515.779783707,2.786033205451465e+16,2.7870946519406052e+16,10614464891363.844,0.0,0.0,0.0,0.0,0.0
16177168.35776208,2.786033205451465e+16,2.7870946519406052e+16,10614464891363.844,0.0,0.0,0.0,0.0,0.0
17794886.19353829,2.786033205451465e+16,2.7870946519406052e+16,10614464891363.844,0.0,0.0,0.0,0.0,0.0
19574375.81289212,2.786033205451465e+16,2.7870946519406052e+16,10614464891363.844,0.0,0.0,0.0,0.0,0.0
21531814.394181333,2.786033205451465e+16,2.7870946519406052e+16,10614464891363.844,0.0,0.0,0.0,0.0,0.0
23684996.83359947,2.786033205451465e+16,2.7870946519406052e+16,10614464891363.844,0.0,0.0,0.0,0.0,0.0
26053497.51695942,2.786033205451465e+16,2.7870946519406052e+16,10614464891363.844,0.0,0.0,0.0,0.0,0.0
28658848.268655367,2.786033205451465e+16,2.7870946519406052e+16,10614464891363.844,0.0,0.0,0.0,0.0,0.0
31524734.095520906,2.786033205451465e+16,2.7870946519406052e+16,10614464891363.844,0.0,0.0,0.0,0.0,0.0
31536000.0,2.786033205451465e+16,2.7870946519406052e+16,10614464891363.844,0.0,0.0,0.0,0.0,0.0
