t(s),Total solute volume 1,Total retention volume 1,Total 1 volume 1,Total 2 volume 1,Total 3 volume 1,Total 4 volume 1,Total 5 volume 1,Total 6 volume 1
1.0,2287128826824782.5,2288732104112401.5,1603277287627.5732,0.0,0.0,0.0,0.0,0.0
2.1,3496606866057319.5,3531006264383119.5,2451121344426.5303,10548230054.20172,42947933845.11226,658853574571.5415,11478273297173.766,19757653945719.79
3.3100000000000005,4454373311551516.5,4542946860668004.0,3122515585229.55,28210587231.717026,114861590643.44733,1762303293503.2505,30701411812258.64,52844246247634.85
4.641000000000001,5295530312448654.0,5459341441871044.0,3712166612133.6143,52845068986.792755,215162813268.82202,3301709614439.6978,57519019995603.445,99010225317954.25
6.105100000000002,6069699161054494.0,6331219656561462.0,4254858948396.2285,84897059881.50282,345665039613.30865,5305176959710.483,92420800736048.4,159109096763311.2
7.7156100000000025,6801058049327270.0,7184991723989422.0,4767541505284.493,125087753581.00742,509304690567.59094,7818119462886.168,136197986083392.53,234515635166436.3
9.487171000000004,7503230398046979.0,8037103125507502.0,5259764300061.451,174332711432.8747,709809577135.8788,10898200801723.78,189855204779703.84,326975415290456.06
11.435888100000005,8184557643907627.0,8899235674263667.0,5737374679424.52,233716082613.7279,951593937945.4395,14613754977824.13,254582977427909.7,438558613250312.2
13.579476910000007,8850385852575904.0,9780579324675736.0,6204120235104.598,304484198438.46686,1239732360392.4014,19043423710949.09,331751395250867.7,571650316344075.1
15.937424601000009,9504198152437700.0,1.0688974513577648e+16,6662442639825.376,388047448502.5132,1579967422229.575,24276319422212.152,422912941431034.44,728956642776139.2
18.53116706110001,1.014823042796329e+16,1.163154989046231e+16,7113909248281.376,485986105714.42505,1978733411752.0842,30412445075685.832,529809769727663.9,913518618929873.5
21.384283767210015,1.0783829055888262e+16,1.2615108166932732e+16,7559463870151.079,600057989695.6556,2443187533542.109,37563241230565.516,654383180325010.4,1128729980095514.0
24.522712143931017,1.1411668236878156e+16,1.3646373992497618e+16,7999579119568.672,732206650703.9069,2981243234281.5435,45852180514532.29,798783905785650.6,1378356640314724.5
27.97498335832412,1.2031885600592332e+16,1.473215981364897e+16,8434351474277.511,884569037877.7837,3601601429963.245,55415347704794.086,965382137708600.9,1666556205701158.5
31.772481694156536,1.2644168517798438e+16,1.5879479880078168e+16,8863561780454.719,1059481741375.1007,4313775928007.6255,66401951861837.51,1156776371684055.8,1997896219284032.0
35.949729863572195,1.3247811481409106e+16,1.709563097286105e+16,9286715476872.742,1259485044034.5742,5128109932511.895,78974726509939.03,1375800315221509.2,2377370139267069.0
40.544702849929415,1.3841759131305824e+16,1.8388253428554772e+16,9703072755368.568,1487324275131.8584,6055781567016.783,93310190389309.23,1625527389620820.5,2810410538641324.5
45.59917313492236,1.4424646178542276e+16,1.9765383886953236e+16,10111676547779.527,1745948349600.908,7108797940324.826,109598766308095.95,1909272788867442.2,3302899730397733.5
51.1590904484146,1.499484271565818e+16,2.1235509888840364e+16,10511384288532.697,2038505863088.4993,8299979263725.538,128044786815757.69,2230593597732813.0,3861178919218239.5
57.27499949325607,1.5550510378940312e+16,2.280763496527355e+16,10900907284432.66,2368339614737.965,9642936569982.709,148866447772757.53,2593288030628641.5,4492057924462698.0
64.00249944258168,1.6089671482033808e+16,2.4491360837205924e+16,11278859177344.309,2738980847205.922,11152048284782.451,172295798316999.53,3001395327010297.0,5202828341535501.0
71.40274938683986,1.6610289918558324e+16,2.629699088515809e+16,11643812656925.691,3154144741365.3306,12842441910944.127,198578872913502.28,3459198136096379.0,6001283558280660.0
79.54302432552385,1.7110359827554052e+16,2.8235656497308856e+16,11994361615085.008,3617728730506.981,14729987197189.293,227976074963673.28,3971229288482178.0,6895749228766244.0
88.49732675807624,1.758799614245707e+16,3.031946565271336e+16,12329184620776.0,4133814998438.819,16831306347406.213,260762911403442.03,4542284677113128.0,7895127615773098.0
98.34705943388387,1.804152040475957e+16,3.2561671443637824e+16,12647105075326.746,4706678130013.775,19163805214707.21,297231155849491.9,5177443589948076.0,9008958704660702.0
109.18176537727226,1.846953558157108e+16,3.497685732647605e+16,12947143659498.69,5340798349915.223,21745727255839.695,337690487809582.8,5882097314825172.0,1.0247500273005026e+16
121.09994191499949,1.8870984854947256e+16,3.758113569325853e+16,13228559544754.713,6040880184708.015,24596229575437.836,382470621530960.25,6661986247760994.0,1.1621828299714418e+16
134.20993610649944,1.924519111817929e+16,4.039235673736341e+16,13490878080110.871,6811875778786.571,27735477929059.508,431923904228469.1,7523245148744806.0,1.3143958334422872e+16
148.6309297171494,1.9591875871786864e+16,4.343032535263155e+16,13733904038188.15,7659011537900.666,31184755286510.37,486428332859765.3,8472455658651372.0,1.4826987818470914e+16
164.49402268886433,1.9911158061532656e+16,4.671702475687198e+16,13957720800630.299,8587816297693.407,34966576618092.43,546390913321990.44,9516704752208126.0,1.6685258916092778e+16
181.94342495775078,2.0203534930856788e+16,5.0276846504790664e+16,14162676935639.787,9604148834844.623,39104801020038.36,612251266826065.5,1.0663647470419024e+16,1.8734541209898156e+16
201.13776745352587,2.0469848054417536e+16,5.413682743789984e+16,14349362387479.33,10714222255786.74,43624731144792.18,684485375178819.9,1.19215720499054e+16,2.0992233642610044e+16
222.25154419887846,2.0711238346030696e+16,5.83268948462497e+16,14518576937035.234,11924622602255.27,48553189105026.49,763609348926834.5,1.3299465431556192e+16,2.3477585331091696e+16
245.47669861876633,2.0929094025144244e+16,6.288012166521745e+16,14671293726321.102,13242318886682.738,53918557506191.555,850183098407350.0,1.4807077062636236e+16,2.6211935308910372e+16
271.024368480643,2.1124995353952724e+16,6.783299390325393e+16,14808620519205.928,14674661692761.977,59750773945920.3,944813785992983.9,1.6454978875245606e+16,2.921897183190449e+16
299.1268053287073,2.130065951573344e+16,7.322569271109832e+16,14931761061141.037,16229367426628.074,66081267115158.12,1048158936336201.0,1.8254619297280224e+16,3.2525012566145536e+16
330.03948586157804,2.145788839169581e+16,7.910239358287304e+16,15041978470748.297,17914485264780.742,72942822475143.64,1160929078357626.0,2.021836909757877e+16,3.615930772903012e+16
364.0434344477359,2.159852129919416e+16,8.551158514835608e+16,15140562109323.281,19738343805538.703,80369365323265.38,1283889786381129.5,2.2359556755335996e+16,4.015436903620677e+16
401.44777789250946,2.172439405474124e+16,9.250640989536112e+16,15228798884024.096,21709474390526.117,88395648895397.98,1417862976788806.5,2.469249085069967e+16,4.454632809096151e+16
442.5925556817604,2.1837305078881916e+16,1.001450289708109e+17,15307949487402.041,23836508032503.812,97056835027474.89,1563727299826717.0,2.7232466681027228e+16,4.937532861852773e+16
487.8518112499365,2.193898870547694e+16,1.084910129661627e+17,15379229687222.602,26128042890630.215,106387954915899.11,1722417443164000.8,2.999575390566002e+16,5.468595768436778e+16
537.6369923749302,2.2031095416182532e+16,1.1761376031363995e+17,15443796470845.906,28592479313749.55,116423237836722.7,1894922134411358.8,3.299956150989912e+16,6.052772173952566e+16
592.4006916124232,2.2115178397472144e+16,1.2758894462060227e+17,15502738621707.695,31237819681615.555,127195296531402.89,2082280594471661.8,3.626197576372142e+16,6.695557401010232e+16
652.6407607736655,2.219268560628715e+16,1.3849899196795395e+17,15557071157346.615,34071430683046.723,138734159627133.75,2285577153303463.0,3.980186614973162e+16,7.403050039716418e+16
718.9048368510321,2.2264956417216916e+16,1.5043358891520717e+17,15607732979082.307,37099766362431.41,151066144272422.25,2505933696000610.5,4.363875347539022e+16,8.182017168298546e+16
791.7953205361354,2.233322189053922e+16,1.634902217147535e+17,15655587059914.479,40328051336327.46,164212566518758.16,2744499562292528.0,4.77926336061952e+16,9.039967045081168e+16
871.9748525897489,2.2398607726668016e+16,1.7777474707332362e+17,15701422515592.72,43759925131289.68,178188293278898.78,3002438479742081.0,5.22837495132142e+16,9.985230171277362e+16
960.1723378487239,2.246213903966032e+16,1.9340199475167066e+17,15745957950845.775,47397050723107.44,193000148351419.2,3280912074182216.5,5.713230369207171e+16,1.1027049678873115e+17
1057.1895716335964,2.252474617393433e+16,2.1049640241961942e+17,15789845536900.986,51238693155689.125,208645196384096.56,3581059475680189.5,6.235810257524778e+16,1.2175682045968008e+17
1163.9085287969563,2.2587270891016784e+16,2.291926835549306e+17,15833675348393.684,55281277647357.734,225108943010716.94,3903972531490597.5,6.7980124446416424e+16,1.344250917900005e+17
1281.299381676652,2.26504723572421e+16,2.4963652988350742e+17,15877979560744.172,59517940867716.93,242363506797090.25,4250666157831424.5,7.401600272753992e+16,1.484016292136688e+17
1410.4293198443174,2.271503246256928e+16,2.719853510212079e+17,15923236178647.395,63938094028314.06,260365838825167.06,4622043420738387.0,8.048141753556528e+16,1.6382663043330243e+17
1552.4722518287492,2.2781560091821196e+16,2.9640905573560474e+17,15969872030211.266,68527021905023.67,279056088039396.66,5018855045766922.0,8.738939032302096e+16,1.8085569729302147e+17
1708.7194770116243,2.2850594052093028e+16,3.2309088176664666e+17,16018264819069.846,73265547583452.34,298356233593474.94,5441653232057589.0,9.4749479489115e+16,1.9966151494738483e+17
1880.5914247127869,2.2922604435377404e+16,3.5222828461837376e+17,16068744079583.223,78129798092437.8,318169127342945.44,5890739905031011.0,1.0256687936667323e+17,2.2043569324177747e+17
2069.6505671840655,2.299799226690698e+16,3.8403390036442995e+17,16121590930326.7,83091110455909.33,338378107446477.44,6366109901096235.0,1.1084143125705795e+17,2.4339077613053552e+17
2277.615623902472,2.3077087361931796e+16,4.187366035026827e+17,16177036571692.084,88116120121575.86,358847353988391.7,6867390053374326.0,1.1956656347958867e+17,2.6876242209710512e+17
2506.3771862927197,2.316014439213768e+16,4.565826884293321e+17,16235259528448.598,93167073094118.9,379423155050053.44,7393775751533511.0,1.2872818793056286e+17,2.968117548674259e+17
2758.0149049219917,2.324733725364684e+16,4.9783721230028416e+17,16296381701713.264,98202398174145.69,399936231700862.0,7943967284977539.0,1.3830359346908531e+17,3.278278792809981e+17
3034.816395414191,2.333875193732272e+16,5.4278554791713184e+17,16360463371037.19,103177565280578.08,420205228052371.2,8516109136192570.0,1.4826039137377306e+17,3.6213055221314016e+17
3339.2980349556105,2.3434378233743304e+16,5.917352076518721e+17,16427497379594.682,108046238980518.45,440041404011577.0,9107736337869070.0,1.5855558458130877e+17,4.0007299335858054e+17
3674.227838451172,2.3534100762335624e+16,6.450180128917592e+17,16497402845610.102,112761712719209.5,459254472246835.5,9715732981315778.0,1.6913484933739715e+17,4.4204481622289984e+17
4042.6506222962894,2.3637689995660464e+16,7.029926972923094e+17,16570018870385.033,117278579444559.56,477659399605872.4,1.0336308863952454e+16,1.7993213350430413e+17,4.8847505693047226e+17
4447.915684525919,2.374479414882479e+16,7.660480451105181e+17,16645098852779.89,121554560296827.34,495083854673547.2,1.0965000944361816e+16,1.908696875318438e+17,5.3983527897166554e+17
4893.707252978511,2.38549330056885e+16,8.346066764326907e+17,16722306161388.39,125552378320187.36,511375841695166.25,1.1596706541620412e+16,2.0185864865116422e+17,5.966427377080419e+17
5384.077978276362,2.396749493313029e+16,9.091295971493871e+17,16801212041540.582,129241533897882.06,526410937662119.25,1.2225754839288264e+16,2.1280029215506803e+17,6.594636015383008e+17
5923.485776103998,2.4081738456224424e+16,9.901216306738356e+17,16881296719503.354,132599819193050.86,540098469920282.25,1.2846021984267536e+16,2.2358804135609558e+17,7.28916249291416e+17
6516.834353714399,2.4196799784460076e+16,1.0781378381916143e+18,16961954678359.863,135614406985313.8,552385963489350.9,1.3451092681823422e+16,2.3411028606794678e+17,8.056746973322308e+17
7169.5177890858395,2.4311707539409868e+16,1.1737910125806523e+18,17042504982102.7,138282370478866.62,563261273030165.4,1.4034467542801416e+16,2.4425399587117363e+17,8.904722554787745e+17
7887.469567994424,2.442540558685894e+16,1.2777602969527493e+18,17122207280951.465,140610537495168.36,572752004639280.5,1.4589810568419862e+16,2.5390902957719555e+17,9.841055664708626e+17
8677.216524793868,2.4536784286071108e+16,1.3908009326780672e+18,17200283717080.094,142614652749962.44,580922118535067.9,1.5111225348173488e+16,2.62972941219771e+17,1.087439244769048e+18
9545.938177273256,2.4644719633153816e+16,1.5137550868768812e+18,17275946364104.545,144317907539861.9,587865952316848.8,1.5593542406694616e+16,2.7135597622457754e+17,1.2014113888062336e+18
10501.531995000581,2.4748118742928036e+16,1.647563651797805e+18,17348429109859.568,145748983355145.8,593700259825750.4,1.6032594612271346e+16,2.7898585562907178e+17,1.3270402851412413e+18
11552.68519450064,2.4845968996799996e+16,1.7932788573102162e+18,17417022109041.031,146939827390792.0,598555152266349.4,1.6425453858009802e+16,2.8581188230829002e+17,1.4654326401453463e+18
12708.953713950705,2.4937387159251204e+16,1.952077504101891e+18,17481106213848.73,147923416796970.53,602564987456622.8,1.6770601612023292e+16,2.9180789308460096e+17,1.6177936527355525e+18
13980.849085345777,2.502166405267962e+16,2.1252746205582907e+18,17540184291033.842,148731763379445.06,605860233196927.4,1.7068009420307108e+16,2.969736419245428e+17,1.7854391729798963e+18
15379.933993880357,2.5098300199568268e+16,2.314337379766189e+18,17593906207045.92,149394359738401.0,608561125066093.4,1.7319113428701268e+16,3.0133433887089766e+17,1.9698100778760077e+18
16918.927393268394,2.5167028351714976e+16,2.520899188227563e+18,17642084621013.38,149937181660004.88,610773588523736.0,1.7526678920613336e+16,3.04938277244227e+17,2.1724888508562033e+18
18611.820132595236,2.5227820064449036e+16,2.746773970307738e+18,17684699593264.496,150382259930371.8,612587481258104.5,1.7694565123684924e+16,3.0785272964609517e+17,2.395218201032725e+18
20474.00214585476,2.5280875310311856e+16,2.993970808896173e+18,17721891304519.68,150747741850638.8,614076832925686.9,1.7827414600985454e+16,3.101585375010561e+17,2.6399214350177423e+18
22522.40236044024,2.5326596269083064e+16,3.2647092425678367e+18,17753941682706.426,151048299529829.28,615301501198461.0,1.793030250413131e+16,3.119440087621242e+17,2.9087242312900895e+18
24775.642596484264,2.5365548478178388e+16,3.561435638754343e+18,17781247169399.71,151295719614171.38,616309570805048.6,1.8008386288277888e+16,3.1329882995527174e+17,3.20397748749503e+18
27254.206856132692,2.539841406811729e+16,3.886841139723705e+18,17804285937899.473,151499525867520.12,617139889723997.0,1.806659477367826e+16,3.143086678473021e+17,3.528281019333086e+18
29980.627541745966,2.5425942533300876e+16,4.243881700731554e+18,17823583383561.74,151667529569605.44,617824313623351.1,1.810938693955765e+16,3.150509873555512e+17,3.8845080684765665e+18
32979.69029592056,2.544890428075757e+16,4.635800707267629e+18,17839679561484.406,151806255548506.78,618389444815426.0,1.8140597491398452e+16,3.15592379786833e+17,4.275830790328715e+18
36278.65932551262,2.5468051162601484e+16,5.066154583490799e+18,17853101519773.32,151921237846513.84,618857840308715.8,1.8163371165040508e+16,3.159874333274208e+17,4.70574709565606e+18
39907.525258063884,2.5484086619985564e+16,5.538841708613288e+18,17864342370463.746,152017208914753.84,619248785664099.6,1.8180174306848536e+16,3.1627894475747565e+17,5.178109372592033e+18
43899.277783870275,2.5497646328868396e+16,6.058134866871554e+18,17873847722209.223,152098217955560.7,619578779472873.8,1.819286317787274e+16,3.164991140569749e+17,5.697155692462679e+18
48290.20556225731,2.550928870443099e+16,6.628717390300385e+18,17882009023881.19,152167711651445.94,619861863847189.0,1.8202784933445584e+16,3.166713036159341e+17,6.267544101462053e+18
53120.22611848305,2.551949354440886e+16,7.255723122977641e+18,17889162613545.305,152228600692435.38,620109896431430.9,1.8210888977588536e+16,3.168119748426708e+17,6.894390537953244e+18
58433.24873033136,2.5528666568570124e+16,7.944780341004023e+18,17895592900634.664,152283324350827.72,620332814017056.8,1.8217831772417068e+16,3.1693250891732525e+17,7.583310822014449e+18
64277.57360336451,2.553714759110393e+16,8.702059795714239e+18,17901538094791.43,152333916661858.0,620538902422930.0,1.8224065033732804e+16,3.170407376324565e+17,8.340467071099773e+18
70706.33096370097,2.5545220396131596e+16,9.534327095573113e+18,17907197128597.215,152382072421521.16,620735065465151.9,1.8229903607786748e+16,3.1714212073773114e+17,9.172618826496427e+18
77777.96406007107,2.5553122893341284e+16,1.044899969226276e+19,17912736776670.098,152429212263716.94,620927090150851.6,1.823557396566574e+16,3.1724058661138496e+17,1.0087179139753181e+19
85556.76046607818,2.556105665467363e+16,1.1454208779416398e+19,17918298340878.008,152476538601982.4,621119874525871.1,1.8241246799370388e+16,3.1733909707837555e+17,1.1092275864172536e+19
94113.436512686,2.5569195372647004e+16,1.2558866443621292e+19,17924003579622.36,152525087543988.25,621317639186965.0,1.824705796206619e+16,3.1744001015897344e+17,1.219681841339728e+19
103525.78016395462,2.5577692095010652e+16,1.3772738425538638e+19,17929959779327.684,152575772047574.53,621524103078421.5,1.8253121600054668e+16,3.1754530754202605e+17,1.3410570274466617e+19
113879.3581803501,2.558668528154108e+16,1.510652285508776e+19,17936264000253.875,152629418050645.44,621742630667633.6,1.825953841883064e+16,3.176567378007125e+17,1.4744227585273938e+19
125268.29399838512,2.559630382430336e+16,1.6571935319536505e+19,17943006595697.934,152686794417950.84,621976353933664.4,1.826640093200768e+16,3.177759097974969e+17,1.6209504098827782e+19
137796.12339822366,2.5606671204554932e+16,1.8181800607327574e+19,17950274125982.22,152748637737777.16,622228273376849.8,1.8273797713240916e+16,3.17904356740602e+17,1.7819222854483913e+19
151576.73573804603,2.561790895516469e+16,1.9950151442804097e+19,17958151785609.016,152815672975908.94,622501342152940.4,1.82818154719033e+16,3.180435867237374e+17,1.9587414856486375e+19
166735.40931185064,2.563013958706808e+16,2.1892334481720025e+19,17966725454704.785,152888630932471.44,622798537183747.8,1.829054161501473e+16,3.181951175298212e+17,2.152942502909456e+19
183409.95024303574,2.564348909726841e+16,2.4025123780613997e+19,17976083457128.34,152968263202616.16,623122920099622.8,1.8300066036603428e+16,3.1836051010449325e+17,2.3662025648108884e+19
201751.94526733932,2.56580891719552e+16,2.6366841866117423e+19,17986318104855.676,153055355318522.22,623477690773536.2,1.831048268953494e+16,3.185413958483103e+17,2.6003537379043426e+19
221928.13979407327,2.5674079167115256e+16,2.893748842043026e+19,17997527086388.25,153150738564104.44,623866235448374.2,1.832189099858174e+16,3.1873950115088064e+17,2.857395793461261e+19
244121.9537734806,2.5691607935479508e+16,3.1758876453148586e+19,18009814747441.6,153255300873083.4,624292171130305.8,1.8334397163847936e+16,3.189566700197104e+17,3.139509822074275e+19
268535.1491508287,2.571083555474715e+16,3.4854775641838866e+19,18023293302430.03,153369997138156.1,624759387583230.0,1.8348115393748212e+16,3.1919488548429645e+17,3.449072565272805e+19
295389.6640659116,2.5731935000776576e+16,3.8251062285089645e+19,18038084007372.938,153495859191883.94,625272087985981.8,1.836316909871054e+16,3.1945629031652883e+17,3.788671408464245e+19
324929.6304725028,2.5755093800204776e+16,4.197587501176347e+19,18054318318380.277,153634005664868.25,625834829089598.9,1.8379692070186692e+16,3.1974320749403994e+17,4.161119949524595e+19
