t(s),Total solute volume 1,Total retention volume 1,Total 1 volume 1,Total 2 volume 1,Total 3 volume 1,Total 4 volume 1,Total 5 volume 1,Total 6 volume 1
1.0,2964866754128039.5,2973420487024615.5,8553732896572.062,0.0,0.0,0.0,0.0,0.0
2.1,4513475498246070.0,4596501335626352.0,13021515940214.293,6878351664.881472,40635249572.454384,1085014189805.7125,26125857040266.363,42745936608768.82
3.3100000000000005,5724436033875858.0,5926572218378842.0,16515173734296.807,18316577599.245678,108208738412.60364,2889424309965.175,69524916842338.69,113080144300380.95
4.641000000000001,6773666407125161.0,7138597616816924.0,19542235196814.332,34155064404.597824,201777547628.5197,5388351550894.87,129607785752009.61,210156904580002.5
6.105100000000002,7725404560047162.0,8299293000250454.0,22288028708014.734,54605729385.90211,322593643568.37787,8615572299537.954,207194766042498.66,335412873780272.5
7.7156100000000025,8610621941508270.0,9443641667807556.0,24841907821722.0,80043311181.50006,472870886703.8395,12630626393914.275,303724333831112.2,491269944054662.8
9.487171000000004,9446487418869110.0,1.0593862250322882e+16,27253405233171.93,110948118086.08492,655446811116.6124,17509819712060.025,421038285799478.56,680806925779855.8
11.435888100000005,1.0243279813345192e+16,1.1766146725799442e+16,29552175649182.543,147885244140.69214,873659842026.8315,23342979446124.082,561304484857487.75,907645727415268.2
13.579476910000007,1.1007401713406362e+16,1.2973611517219844e+16,31756690729374.508,191496368217.47723,1131300848918.3147,30232198692322.39,726987153798531.0,1175910963376125.5
15.937424601000009,1.1742887616112786e+16,1.4227791229438512e+16,33878590118739.69,242496917614.59402,1432596390186.8132,38291434070323.695,920837554518135.6,1490220941310716.8
18.53116706110001,1.2452240586741872e+16,1.5539485118394994e+16,35925095235509.195,301675918582.8839,1782207831151.0083,47646535897889.78,1145894984165718.5,1855694032604298.2
21.384283767210015,1.3136937337365016e+16,1.6919285711537256e+16,37900466437816.94,369897436888.1419,2185239855300.861,58435539809797.14,1405493965688491.0,2277963264943925.5
24.522712143931017,1.3797756632134934e+16,1.837793976637474e+16,39806950482648.2,448103171108.46857,2647255785280.0176,70809153013044.39,1703275995166879.2,2763195676620876.5
27.97498335832412,1.4435007427764962e+16,1.9926616331512244e+16,41645438717831.05,537316073527.26447,3174298974232.9507,84931418043380.11,2043205397162186.0,3318115034776136.0
31.772481694156536,1.5048696263609134e+16,2.157712182468616e+16,43415950007325.0,638645022333.8821,3772920407541.298,100980560969015.75,2429589428262996.0,3950028056407897.0
35.949729863572195,1.5638654633508122e+16,2.33420846956818e+16,45117998202753.875,753290620060.475,4450212957604.486,119150039832643.52,2867103004178870.5,4666855516381697.0
40.544702849929415,1.620463709985861e+16,2.5235123090415188e+16,46750875205430.93,882552178329.3153,5213852646645.418,139649807701625.98,3360818420938429.5,5477170481886113.0
45.59917313492236,1.674639573565328e+16,2.727100391170691e+16,48313865733946.836,1027835893668.9938,6072146945817.699,162707797036200.06,3916240285902643.5,6390246244541393.0
51.1590904484146,1.726373412517753e+16,2.9465798887646096e+16,49806403117938.03,1190664149383.1052,7034089726753.148,188571622283989.75,4539345661545395.0,7416116321645100.0
57.27499949325607,1.7756543442274958e+16,3.183704176590819e+16,51228173385169.15,1372685818088.2854,8109422125107.318,217510489441222.5,5236629240498643.0,8565648312365022.0
64.00249944258168,1.822482324279345e+16,3.440389003785582e+16,52579175248609.83,1575687405745.3528,9308698376032.758,249817297523794.88,6015153277778679.0,9850632658729556.0
71.40274938683986,1.866868997686377e+16,3.7187294344115224e+16,53859744664882.49,1801604878204.164,10643355682649.941,285810918684428.94,6882602034873546.0,1.1283886708467704e+16
79.54302432552385,1.9088376476042076e+16,4.02101787061584e+16,55070553354909.84,2052536042754.7954,12125787364459.795,325838650736439.8,7847340634222287.0,1.2879374068395478e+16
88.49732675807624,1.948422561773541e+16,4.349763480905884e+16,56212590525821.41,2330753409058.362,13769418839062.033,370278846471100.5,8918478446552961.0,1.4652339135525486e+16
98.34705943388387,1.9856680986862776e+16,4.707713362178536e+16,57287135929741.125,2638717510542.813,15588786325502.83,419543736022173.6,1.0105937385958326e+16,1.6619456873176132e+16
109.18176537727226,2.020627672050347e+16,5.0978757623783576e+16,58295730565404.14,2979090712506.373,17599618424282.77,474082469151186.4,1.1420525713815678e+16,1.8798998280610988e+16
121.09994191499949,2.0533627966757668e+16,5.523545679480403e+16,59240149151729.59,3354751553032.022,19818920846337.94,534384411626963.9,1.2874018106915406e+16,2.121101248795292e+16
134.20993610649944,2.0839422652064764e+16,5.988333133852665e+16,60122376376268.6,3768809648627.8237,22265064479474.668,600982732557697.1,1.4479242798566876e+16,2.3877526904832932e+16
148.6309297171494,2.112441464209831e+16,6.496194389067172e+16,60944587164109.03,4224621145390.121,24957876678761.85,674458317223022.9,1.6250176545088354e+16,2.6822767301273776e+16
164.49402268886433,2.138941796478334e+16,7.051466375716999e+16,61709130010995.484,4725804610889.446,27918735161755.03,755444033095885.9,1.8202048013200668e+16,3.0073400076306504e+16
181.94342495775078,2.1635301556002012e+16,7.658904558042064e+16,62418511824396.86,5276257148095.53,31170663216697.742,844629366364931.1,2.0351449948385948e+16,3.3658799277478396e+16
201.13776745352587,2.1862983965059496e+16,8.32372447709118e+16,63075382648467.27,5880170378330.219,34738424138369.31,942765433638309.9,2.2716460197610156e+16,3.761134119743877e+16
222.25154419887846,2.207342756838606e+16,9.05164720798006e+16,63682518970260.32,6542045792958.244,38648611936240.914,1050670359820746.6,2.5316771347624908e+16,4.196672962726936e+16
245.47669861876633,2.2267632027207772e+16,9.848948982166173e+16,64242804844776.53,7266708818935.632,42929734446415.47,1169234999271915.2,2.8173828420783664e+16,4.676435512628829e+16
271.024368480643,2.2446626932773924e+16,1.072251524694906e+17,64759210676107.06,8059320784474.625,47612284040386.04,1299428963672787.0,3.1310973751975436e+16,5.204769200556725e+16
299.1268053287073,2.2611463768492044e+16,1.1679899461263179e+17,65234770027857.06,8925387808371.045,52728790162441.03,1442306906446657.5,3.4753597849818864e+16,5.7864737139875656e+16
330.03948586157804,2.2763207455464316e+16,1.2729386956657784e+17,65672555231689.41,9870765468374.115,58313846934095.96,1599014999559792.0,3.852929470964656e+16,6.42684952342728e+16
364.0434344477359,2.2902927825675588e+16,1.3880064222653349e+17,66075652787161.484,10901657927721.0,64404108022665.44,1770797523183268.5,4.266801967447168e+16,7.13175157844654e+16
401.44777789250946,2.3031691387289996e+16,1.514189400429225e+17,66447139604325.67,12024610012111.922,71038239867238.75,1959003470940899.2,4.720224750763544e+16,7.907648768757238e+16
442.5925556817604,2.315055371932313e+16,1.6525796624973843e+17,66790061062107.03,13246490530812.38,78256823182057.62,2165093052108929.0,5.2167127819527464e+16,8.761689828400402e+16
487.8518112499365,2.3260552772529188e+16,1.8043737968364138e+17,67107411681156.33,14574464926561.635,86102191422466.2,2390643945973033.0,5.760063435271626e+16,9.701776454439253e+16
537.6369923749302,2.336270327441965e+16,1.970882456846647e+17,67402118982160.03,16015955124415.043,94618193630938.66,2637357131444797.5,6.35437038482825e+16,1.0736644516278037e+17
592.4006916124232,2.345799235179921e+16,2.1535406266330048e+17,67677030856733.38,17578584238964.67,103849867835849.03,2907062075939656.0,7.004035926638842e+16,1.1875954348624174e+17
652.6407607736655,2.3547376403904348e+16,2.3539186895091254e+17,67934906546342.5,19270103607506.23,113843010041804.38,3201721020486370.5,7.713781099410582e+16,1.3130391251222035e+17
718.9048368510321,2.363177918955989e+16,2.573734345205255e+17,68178411123707.055,21098299465127.715,124643622954400.81,3523432042280114.5,8.48865283245116e+16,1.4511777463063085e+17
791.7953205361354,2.3712091035987308e+16,2.814865420750056e+17,68410113210202.8,23070876495395.824,136297228095557.73,3874430510790339.0,9.33402719185999e+16,1.603319703918275e+17
871.9748525897489,2.3789169035716744e+16,3.0793636185481856e+17,68632485543973.38,25195315514859.34,148848025109893.06,4257088478721536.0,1.025560761571253e+17,1.7709135235708662e+17
960.1723378487239,2.386383807039928e+16,3.369469243281667e+17,68847907933672.19,27478702727831.523,162337883114750.47,4673911464573487.0,1.1259416825303827e+17,1.9555634204638016e+17
1057.1895716335964,2.393689248399903e+16,3.6876269471001965e+17,69058672085683.34,29927528376404.496,176805151240545.1,5127531989736386.0,1.235178087389564e+17,2.1590467014562483e+17
1163.9085287969563,2.4009098220175936e+16,4.036502530415339e+17,69266987770546.99,32547453275251.027,192283279433068.6,5620699131177958.0,1.353930354978098e+17,2.383333224718911e+17
1281.299381676652,2.4081195236879876e+16,4.419000833908772e+17,69474989789143.94,35343042734975.62,208799246579586.9,6156263243029249.0,1.482882909226766e+17,2.630607167091866e+17
1410.4293198443174,2.4153900012695572e+16,4.838284756736755e+17,69684745203584.11,38317468819200.73,226371801534386.1,6737154890325684.0,1.622739091614534e+17,2.9032913759364397e+17
1552.4722518287492,2.4227907962144668e+16,5.2977954372616134e+17,69898260305431.305,41472183824735.61,245009534103225.47,7366356931210036.0,1.774214378556425e+17,3.204074609989306e+17
1708.7194770116243,2.4303895579246344e+16,5.801273637201298e+17,70117486799946.234,44806570384840.51,264708807876669.94,8046868587851899.0,1.938027665102752e+17,3.535942001776952e+17
1880.5914247127869,2.4382522128973816e+16,6.35278237952158e+17,70344326685991.58,48317576710754.06,285451605204195.3,8781660272012704.0,2.1148903189745286e+17,3.902209101451169e+17
2069.6505671840655,2.4464430704113212e+16,6.956730906870086e+17,70580635305108.83,51999349199573.11,307203356534763.44,9573617893172832.0,2.3054927005332125e+17,4.306559886953629e+17
2277.615623902472,2.455024846028354e+16,7.617900053637373e+17,70828222019558.73,55842878871705.63,329910851369373.9,1.0425475394517504e+16,2.5104878493989677e+17,4.7530891461677894e+17
2506.3771862927197,2.4640585834858052e+16,8.341469164264794e+17,71088847958893.22,59835682685690.055,353500355156624.9,1.1339734359120958e+16,2.7304720629569498e+17,5.2463496505100275e+17
2758.0149049219917,2.4736034547253732e+16,9.133044747357108e+17,71364220250731.52,63961545411551.445,377876083838156.5,1.231856973531665e+16,2.965962143149899e+17,5.791404542886495e+17
3034.816395414191,2.483716417017139e+16,9.998691134347767e+17,71655982128694.88,68200351969089.555,402919212718003.2,1.3363721082225532e+16,3.217369174340035e+17,6.393885352015592e+17
3339.2980349556105,2.494451705643869e+16,1.094496351834444e+18,71965698296202.81,72528043321951.97,428487615151641.56,1.4476369274632568e+16,3.48496882643966e+17,7.060056015026373e+17
3674.227838451172,2.5058601407638184e+16,1.197894388912079e+18,72294834929267.45,76916730353692.17,454416534451914.6,1.565699937518397e+16,3.768868364537738e+17,7.796883235757472e+17
4042.6506222962894,2.5179882283465664e+16,1.3108280559661181e+18,72644733738237.61,81334998686554.2,480520383767635.44,1.6905251425590356e+16,4.068970799403773e+17,8.612113422004919e+17
4447.915684525919,2.5308770325237416e+16,1.4341232206645115e+18,73016579434795.33,85748431933460.02,506595836392854.9,1.8219762224853976e+16,4.3849369297700346e+17,9.51435634289657e+17
4893.707252978511,2.5445608409987932e+16,1.568671759554261e+18,73411361228656.81,90120372142970.53,532426317410957.8,1.9598003139472444e+16,4.7161465171691206e+17,1.0513175382371054e+18
5384.077978276362,2.559065537913834e+16,1.7154372532392315e+18,73829825884314.95,94412916870798.55,557787893414406.7,2.103612018374276e+16,5.0616600834510694e+17,1.1619184386950725e+18
5923.485776103998,2.5744068055220004e+16,1.8754615867607752e+18,74272425838789.31,98588137804478.03,582456471370993.8,2.2528786303944932e+16,5.420183768754608e+17,1.284415038491133e+18
6516.834353714399,2.5905881003971556e+16,2.049872681797993e+18,74739260814712.31,102609473795459.86,606216028224427.0,2.4069076920435148e+16,5.790039895059876e+17,1.4201101696047636e+18
7169.5177890858395,2.6075984922118132e+16,2.2398936240653212e+18,75230015468476.89,106443226564488.1,628867447558107.0,2.564838306654013e+16,6.169146696494816e+17,1.570444045737595e+18
7887.469567994424,2.6254104450385332e+16,2.44685348573672e+18,75743895380175.9,110060058117039.69,650237366944303.8,2.7256378318783708e+16,6.555011101912582e+17,1.7370058514558492e+18
8677.216524793868,2.6439776645873544e+16,2.6722001712630953e+18,76279564945823.0,113436366214265.02,670186305497940.2,2.888105711049906e+16,6.944738777321952e+17,1.9215455575378693e+18
9545.938177273256,2.663233176889633e+16,2.917515630048203e+18,76835091946872.67,116555401870852.05,688615267979769.2,3.050886205094417e+16,7.335065623611438e+17,2.1259858681054241e+18
10501.531995000581,2.683087846750261e+16,3.184533774471576e+18,77407904807192.4,119407996447014.81,705470042946863.8,3.2124915927904696e+16,7.722414435557407e+17,2.352434250576226e+18
11552.68519450064,2.703429581700987e+16,3.475161410060326e+18,77994769626934.52,121992789670225.88,720742552770453.0,3.3713369497048036e+16,8.102979306183054e+17,2.6031950840158925e+18
12708.953713950705,2.7241234903927436e+16,3.791502420899984e+18,78591794752250.2,124315895245850.62,734468881017069.6,3.5257868425815772e+16,8.472838482813622e+17,2.880782092717864e+18
13980.849085345777,2.745013262209589e+16,4.1358853554587576e+18,79194470577584.78,126390004700365.42,746723980643347.5,3.6742131657168216e+16,8.828093703496769e+17,3.1879314123738947e+18
15379.933993880357,2.7659239951604336e+16,4.51089442898103e+18,79797751131187.7,128233004762208.6,757613507539546.8,3.815061934806129e+16,9.165030657102401e+17,3.527615859707681e+18
16918.927393268394,2.786666611121472e+16,4.919403808921925e+18,80396181456126.02,129866256267007.56,767263653414034.1,3.946925258010327e+16,9.480291401519899e+17,3.903061223987478e+18
18611.820132595236,2.8070438559776296e+16,5.364614898607013e+18,80984070716056.39,131312737997497.53,775810179577177.5,4.068613134404981e+16,9.771045850965834e+17,4.31776563661831e+18
20474.00214585476,2.8268576919039148e+16,5.850096208718299e+18,81555705464608.48,132595282741053.11,783387994400176.8,4.179218486213579e+16,1.0035146522868969e+18,4.775523255667625e+18
22522.40236044024,2.8459176688028764e+16,6.379825338992961e+18,82105591163665.88,133735116264507.4,790122519446415.4,4.278168263886614e+16,1.0271249450506944e+18,5.280453571388495e+18
24775.642596484264,2.864049646168828e+16,6.958232615832927e+18,82628703811543.16,134750853130207.9,796123754009968.5,4.365253898955925e+16,1.0478885289464017e+18,5.83703754812433e+18
27254.206856132692,2.8811040718801424e+16,7.590246068669032e+18,83120728788395.05,135658017235631.25,801483439557505.5,4.440636017751633e+16,1.065846863378141e+18,6.450161542208979e+18
29980.627541745966,2.8969629597039884e+16,8.281337684226302e+18,83578262159111.78,136469059270130.69,806275160237211.9,4.5048211338837416e+16,1.0811240308906426e+18,7.125169489918111e+18
32979.69029592056,2.911544779779688e+16,9.037571233655029e+18,83998951765069.53,137193760883417.42,810556728704916.8,4.558611669621524e+16,1.0939146099228447e+18,7.86792330979681e+18
36278.65932551262,2.9248066958670684e+16,9.865652376723884e+18,84381561769321.72,137839865364672.83,814373910976659.0,4.603034486041924e+16,1.104466448841211e+18,8.684870920725468e+18
39907.525258063884,2.936743922347248e+16,1.0772982143866206e+19,84725954105867.1,138413766155394.9,817764493760119.8,4.639256327573398e+16,1.113060363228011e+18,9.583120873924942e+18
43899.277783870275,2.9473863697668556e+16,1.1767715209340117e+19,85032991702658.27,138921114097565.77,820761872319596.5,4.668496444799153e+16,1.1199892138148232e+18,1.0570522451401527e+19
48290.20556225731,2.9567931162224292e+16,1.2858824539470205e+19,85304378979511.3,139367258036486.8,823397654213224.4,4.691946662921836e+16,1.1255388147352374e+18,1.165575025765229e+19
53120.22611848305,2.9650455027116532e+16,1.4056174003029918e+19,85542462647088.2,139757492701256.61,825703124600334.5,4.7107072792682264e+16,1.1299726648786968e+18,1.2848392807251489e+19
58433.24873033136,2.97223975168706e+16,1.537060038204547e+19,85750018750137.34,140097136275769.64,827709705343595.4,4.725743861904676e+16,1.1335217001392221e+18,1.4159045288909949e+19
64277.57360336451,2.9784799410290056e+16,1.6814005975024249e+19,85930049964681.12,140391488372968.27,829448707401029.4,4.7378661075744264e+16,1.1363793285413715e+18,1.5599407415751082e+19
70706.33096370097,2.9838719655483188e+16,1.8399462718243777e+19,86085611385695.64,140645726197162.42,830950717856546.2,4.747726334718721e+16,1.138701156202051e+18,1.7182387896983613e+19
77777.96406007107,2.98851884861024e+16,2.0141328541588005e+19,86219675266163.97,140864787837728.9,832244910754022.4,4.7558326933241304e+16,1.1406082197404826e+18,1.8922217477054382e+19
85556.76046607818,2.992517497368178e+16,2.2055376578605617e+19,86335037404662.66,141053274895626.16,833358412432412.5,4.7625711390106104e+16,1.1421922977007954e+18,2.0834572647816335e+19
94113.436512686,2.9959567817784104e+16,2.4158937885690085e+19,86434261724392.28,141215386153840.38,834316148005868.4,4.768230571344677e+16,1.143521961608944e+18,2.293671208475409e+19
103525.78016395462,2.9989166847202884e+16,2.647105847952821e+19,86519655753901.27,141354901681856.34,835140390285531.9,4.7730268498390296e+16,1.1446483430722399e+18,2.524762768616271e+19
113879.3581803501,3.0014682334265972e+16,2.9012671727020855e+19,86593268648826.31,141475169360768.56,835850918210245.4,4.777123130968807e+16,1.1456100106867002e+18,2.7788211883333968e+19
125268.29399838512,3.003673924166074e+16,3.1806787393247625e+19,86656903444093.33,141579134963193.38,836465135103766.8,4.780645539232114e+16,1.1464367218274079e+18,3.0581442775612727e+19
137796.12339822366,3.0055884243746556e+16,3.4878698905834267e+19,86712137310599.89,141669375248317.78,836998264195030.0,4.783694375241695e+16,1.1471521028817623e+18,3.3652588595179532e+19
151576.73573804603,3.0072593905568336e+16,3.825621063308314e+19,86760345151891.84,141748136513809.03,837463576377692.4,4.7863516749860216e+16,1.147775454087864e+18,3.702943309628178e+19
166735.40931185064,3.008728303614057e+16,4.196988718264422e+19,86802723703626.97,141817373969158.8,837872622823425.5,4.788686123813983e+16,1.1483229206025714e+18,4.074252362504695e+19
183409.95024303574,3.0100312675065936e+16,4.605332691888382e+19,86840314575191.0,141878789380750.78,838235457385160.1,4.790755888174609e+16,1.1488082461362821e+18,4.482544384662931e+19
201751.94526733932,3.011199746427215e+16,5.0543462084200374e+19,86874025517367.3,141933865818676.22,838560841878026.9,4.792611965290699e+16,1.1492432463462697e+18,4.9315113352003625e+19
221928.13979407327,3.0122612265078704e+16,5.548088813873832e+19,86904649512762.25,141983898846401.53,838856430345136.9,4.794298021561396e+16,1.1496382512823279e+18,5.425211654999652e+19
244121.9537734806,3.0132398211184364e+16,6.09102250322463e+19,86932882238843.34,142030025051632.12,839128937615205.2,4.795852364211571e+16,1.1500022497100923e+18,5.9681063768838005e+19
268535.1491508287,3.014156797513359e+16,6.688051353102381e+19,86959337261843.94,142073246869900.06,839384285958093.2,4.797308778113077e+16,1.1503431668197e+18,6.565098729157784e+19
295389.6640659116,3.015031050386747e+16,7.3445649824828965e+19,86984559698962.31,142114454905669.75,839627736955693.8,4.7986972781997576e+16,1.150668041076024e+18,7.2215775773715464e+19
324929.6304725028,3.01587952158632e+16,8.06648619792957e+19,87009038327225.33,142154447715624.34,839864008379601.4,4.8000447763158776e+16,1.150983180902138e+18,7.943465052792034e+19
