t(s),Total solute volume 1,Total retention volume 1,Total 1 volume 1,Total 2 volume 1,Total 3 volume 1,Total 4 volume 1,Total 5 volume 1,Total 6 volume 1
1.0,2334382284795834.5,2336211223768372.5,1828938972540.161,0.0,0.0,0.0,0.0,0.0
2.1,3587438898561198.5,3590667811872625.0,2810682181154.7744,122921079.04275441,515348716.4064398,8260197283.05724,148104800939.71567,261227862248.45813
3.3100000000000005,4595993925391448.0,4600719685364138.0,3600863596785.9756,330611913.30355424,1386095888.8502743,22219775543.306458,398386101114.089,702573791466.4637
4.641000000000001,5497586898848938.0,5504014626934304.0,4307242520416.7964,623139917.3118763,2612524168.675899,41886157387.19955,750977876544.1282,1324385866940.1653
6.105100000000002,6343521358027049.0,6351921543575427.0,4970014183041.866,1007812546.6138144,4225270190.1845927,67754059829.43746,1214750373741.3098,2142433849036.4707
7.7156100000000025,7159583254544734.0,7170284779750482.0,5609381328940.122,1495739203.5295446,6270910302.192991,100574841903.87473,1803174523074.6267,3180627862341.042
9.487171000000004,7961083575558959.0,7974475953099192.0,6237339790703.595,2101063372.5126026,8808741287.038662,141305310183.2214,2533404323785.1973,4469418310890.132
11.435888100000005,8758183422230263.0,8774722923141063.0,6861850574835.39,2840867546.7663593,11910381764.124529,191101821893.2019,3426171111928.44,6045626152824.444
13.579476910000007,9558203023280960.0,9578421232375002.0,7488648924666.294,3735341225.4373174,15660476517.134068,251332192582.25076,4505996764212.039,7952835394825.237
15.937424601000009,1.0366763700900718e+16,1.0391278075935646e+16,8122139026243.706,4808091522.677533,20157998717.28134,323597352597.8023,5801581225166.994,10242091340697.45
18.53116706110001,1.1188403531432306e+16,1.121792989494399e+16,8765876365247.794,6086552858.111634,25517967536.468464,409759872586.8068,7346312447561.841,12972810305894.406
21.384283767210015,1.2026923417415198e+16,1.2062290442156202e+16,9422838866923.955,7602475587.21211,31873496702.63555,511978060072.38715,9178875180870.629,16213856660833.932
24.522712143931017,1.2885575830319632e+16,1.2927741616295408e+16,10095574771856.53,9392478004.90194,39378108730.73188,632744649316.908,11343940861948.799,20044755105914.6
27.97498335832412,1.3767147569569152e+16,1.3817218389111558e+16,10786267475800.41,11498641714.862026,48208230946.725555,774928822666.6544,13892915927933.5,24557000443353.52
31.772481694156536,1.467396125442028e+16,1.4733212472028404e+16,11496736698504.803,13969120893.424889,58565749748.6196,941819680440.1918,16884714930021.293,29855411428554.664
35.949729863572195,1.5607810135226446e+16,1.5677709196642966e+16,12228387409779.518,16858724456.402994,70680451251.12027,1137168516062.075,20386511379577.664,36059454935389.42
40.544702849929415,1.6569839478494992e+16,1.6652070717798594e+16,12982116897351.775,20229419572.077934,84812132168.24799,1365226554752.8604,24474406879728.246,43304447420025.77
45.59917313492236,1.7560390795577236e+16,1.7656881644936398e+16,13758192723576.957,24150698162.13296,101252136274.36082,1630774365588.526,29233951145344.13,51742528290234.03
51.1590904484146,1.857882927528899e+16,1.8691777298667124e+16,14556117522840.709,28699746938.53114,120324067199.10703,1939139088497.4336,34760444339673.434,61543298612981.625
57.27499949325607,1.96233775259184e+16,1.9755277555252708e+16,15374498742264.367,33961366736.69802,142383450165.12274,2296195970101.5366,41158959501101.42,72894030303923.66
64.00249944258168,2.0690978756339604e+16,2.0844649303240644e+16,16210941447331.908,40027597713.50515,167816160590.96832,2708351427754.8257,48544035866580.55,85999374400984.62
71.40274938683986,2.1777209613309716e+16,2.1955817672909784e+16,17061980032068.637,46997021944.257256,197035500226.15994,3182505863280.5366,57039011895081.24,101080529287459.03
79.54302432552385,2.2876257797905732e+16,2.3083341161804636e+16,17923060682269.477,54973732780.52678,230477876227.9498,3725995640055.2944,66774988182289.07,118373867785306.3
88.49732675807624,2.398097357742711e+16,2.4220459836465188e+16,18788581734208.574,64065980625.240814,268597123674.10477,4346514993766.329,77889434739349.16,138129064466511.33
98.34705943388387,2.5082998619674452e+16,2.5359220174147716e+16,19651994613726.82,74384528314.76424,311857610667.4595,5052020223097.362,90524485209883.97,160606812287534.38
109.18176537727226,2.6172970947530744e+16,2.6490675567385816e+16,20505964413881.562,86040777572.08961,360726383724.025,5850620408642.268,104824994382714.08,186076273488502.75
121.09994191499949,2.724080130039243e+16,2.760515811011293e+16,21342586418251.723,99144762150.43427,415664754324.9982,6750461223139.979,120936476342255.44,214812476220410.44
134.20993610649944,2.8276013256616916e+16,2.8692614476903308e+16,22153652579535.773,113803142663.57486,477119892591.4828,7759611093800.693,139003088255789.66,247093945321913.34
148.6309297171494,2.9268136302453308e+16,2.9742995670729076e+16,22930959480474.21,130117378957.40874,545517165327.1609,8885961824269.691,159165874999677.56,283200937426964.25
164.49402268886433,3.020713695004339e+16,3.074668644967306e+16,23666646105291.547,148182290788.64008,621254102028.953,10137158298134.133,181561534072304.16,323414724761118.1
181.94342495775078,3.1083867825792196e+16,3.1694955133086416e+16,24353545690433.188,168085235881.5429,704696949201.0472,11520573364011.12,206321986099246.5,368018419955358.6
201.13776745352587,3.189050886175166e+16,3.258039868652657e+16,24985531388103.496,189906123892.95117,796180729112.5146,13043343622184.148,233575029184638.94,417299833726983.3
222.25154419887846,3.2620969454800416e+16,3.3397352585791772e+16,25557831348867.82,213718434329.06213,896013507479.2085,14712478829609.03,263446301881396.1,471556786989720.0
245.47669861876633,3.3271217243069244e+16,3.4142231472718116e+16,26067286310447.434,239591309489.05273,1004485168024.6217,16535051530029.129,296062671071573.3,531105144259240.2
271.024368480643,3.383949955931927e+16,3.4813766612595572e+16,26512523101268.867,267592651627.00238,1121880397051.5046,18518464331784.74,331556998111317.9,596289594683139.9
299.1268053287073,3.4326428857511052e+16,3.5413110878045012e+16,26894021570036.605,297792979204.8888,1248494850353.5276,20670780741012.348,370074032301938.06,667496898091325.6
330.03948586157804,3.4734913908827056e+16,3.594379192284007e+16,27214060679123.61,330269614729.5457,1384652710197.2012,23001093146618.707,411776962212406.75,745170975649940.6
364.0434344477359,3.5069933707807284e+16,3.641150885347713e+16,27476541364870.74,365110620494.0421,1530723185372.9727,25519890660534.76,456853961822601.1,829828918016002.9
401.44777789250946,3.533816903218224e+16,3.682378538896122e+16,27686697872762.45,402417806996.1723,1687133123508.941,28239382580784.344,505523944941491.44,922076780453344.1
442.5925556817604,3.5547524662815316e+16,3.718951053081936e+16,27850723427266.453,442308145218.8015,1854372931715.7803,31173732532883.934,558040728249829.56,1022624002717115.8
487.8518112499365,3.5706590044396348e+16,3.7518412862966776e+16,27975347671399.477,484913035673.23065,2032993511904.639,34339165128380.555,614694923418639.2,1132295475804426.8
537.6369923749302,3.5824094486740092e+16,3.782052358879546e+16,28067409828999.4,530375116255.9614,2223592877794.3477,37753920894457.266,675813125848658.5,1252040677489179.2
592.4006916124232,3.5908412734017756e+16,3.810568405296661e+16,28133471329169.465,578842591006.7827,2426792378494.968,41438053994144.41,741754301288754.4,1382939857367257.0
652.6407607736655,3.5967167470826264e+16,3.838314521178717e+16,28179504378595.758,630461373049.2023,2643203758200.235,45413086969480.24,812903622549699.6,1526207861931831.2
718.9048368510321,3.6006958743349844e+16,3.866129074126353e+16,28210679969036.133,685365589201.9962,2873389347266.589,49701552798469.45,889664294754843.4,1683196715454904.0
791.7953205361354,3.603322976893056e+16,3.894749542707159e+16,28231262742114.73,743667134874.4288,3117818271612.2153,54326463001794.72,972448058378148.1,1855398388612481.2
871.9748525897489,3.605025851263665e+16,3.924811038243805e+16,28244604389783.965,805444970908.8662,3376821580168.243,59310739360567.266,1061665038761139.9,2044449220738804.2
960.1723378487239,3.606124876921813e+16,3.956855055353566e+16,28253215015062.625,870734734930.8905,3650548690789.81,64676636712879.914,1157713431198315.8,2252137217965492.0
1057.1895716335964,3.606848595556379e+16,3.991345069542677e+16,28258885192024.11,939519050858.3911,3938926763055.7446,70445168529636.38,1260969229799929.8,2480413010527520.5
1163.9085287969563,3.60735220162448e+16,4.028685437984412e+16,28262830835244.93,1011718732374.9258,4241623818860.1084,76635530245133.3,1371775910264386.5,2731404749703337.5
1281.299381676652,3.607735942373975e+16,4.06924055015248e+16,28265837359952.184,1087184954340.8423,4558015920932.697,83264502254835.55,1490433743847059.2,3007436793447950.0
1410.4293198443174,3.6080613573504984e+16,4.113352069235348e+16,28268386915005.008,1165692448327.7734,4887158644855.764,90345808198877.25,1617188307675895.2,3311051764965526.5
1552.4722518287492,3.6083642987802584e+16,4.161353113301934e+16,28270760394741.84,1246933866340.8953,5227763448575.974,97889405515061.44,1752217781068103.5,3645035500923981.5
1708.7194770116243,3.608664530062356e+16,4.213579106539376e+16,28273112641065.125,1330515619883.5332,5578180227162.058,105900693148191.22,1895618758688639.5,4012444504445274.5
1880.5914247127869,3.608972274136855e+16,4.270375648506577e+16,28275523748470.746,1415955691282.461,5936388136139.305,114379633493949.88,2047390529166123.2,4416635713461184.5
2069.6505671840655,3.6092923618764216e+16,4.332104076548752e+16,28278031565787.664,1502684079990.0278,6299997461839.816,123319799817643.2,2207418020823413.5,4861298612974589.0
2277.615623902472,3.6096266751214824e+16,4.3991454870144664e+16,28280650836823.434,1590046646873.094,6666265737694.486,132707374891101.95,2375453875424496.0,5350489905392867.0
2506.3771862927197,3.609975482575097e+16,4.4719039239736376e+16,28283383666807.508,1677313125616.585,7032131331055.043,142520140710154.6,2551100363354498.5,5888671081797255.0
2758.0149049219917,3.610338115165777e+16,4.5508093255244584e+16,28286224813711.33,1763689964618.7905,7394267281793.721,152726512810770.16,2733792097995130.5,6480749310720854.0
3034.816395414191,3.610713278999321e+16,4.636320697705422e+16,28289164140157.465,1848338435017.8748,7749157219160.185,163284685965212.6,2922780744461839.0,7132122096839594.0
3339.2980349556105,3.611099186982063e+16,4.728929894412392e+16,28292187644658.176,1930398087045.0103,8093193701587.1,174141970656298.44,3117123143736517.0,7848726180477165.0
3674.227838451172,3.611493610591731e+16,4.8291663245189624e+16,28295277867229.703,2009015163131.348,8422797337883.35,185234410812738.1,3315674471679396.0,8637091166411974.0
4042.6506222962894,3.6118939051154296e+16,4.93760287654519e+16,28298414087126.043,2083375002453.9102,8734552642855.494,196486781220211.25,3517088194396445.5,9504398396948478.0
4447.915684525919,3.6122970352772584e+16,5.054863333116548e+16,28301572523625.426,2152736839948.7163,9025353932178.5,207813065506556.0,3719824625895085.0,1.0458545623695482e+16
4893.707252978511,3.6126996147802536e+16,5.181631528187527e+16,28304726645832.992,2216468781649.0044,9292551957063.209,219117509860219.3,3922169791213430.0,1.1508218085614532e+16
5384.077978276362,3.613097966668882e+16,5.3186624677520536e+16,28307847645607.676,2274080221800.3643,9534089814196.29,230296330739859.56,4122265995656404.0,1.2662966666753854e+16
5923.485776103998,3.6134882078105896e+16,5.466795580681167e+16,28310905099456.746,2325248667659.342,9748615410522.29,241240124126541.28,4318154951113525.0,1.3933293884288096e+16
6516.834353714399,3.61386635819291e+16,5.626970185054576e+16,28313867824854.438,2369837968063.1484,9935557888887.225,251836977633871.75,4507833482808831.0,1.5330748544492064e+16
7169.5177890858395,3.614228473207022e+16,5.800243145755932e+16,28316704916654.92,2407905390003.024,10095157299317.35,261976224990829.4,4689320733630260.0,1.6868029999261992e+16
7887.469567994424,3.614570794328236e+16,5.987808565368486e+16,28319386927640.91,2439695887025.3984,10228440572154.525,271552707540301.28,4860734443036895.0,1.8559103036438388e+16
8677.216524793868,3.614889910648391e+16,6.1910192031568216e+16,28321887134094.086,2465623205307.0605,10337142307931.936,280471325214512.0,5020372406576058.0,2.0419324540646396e+16
9545.938177273256,3.615182920837887e+16,6.411409173835207e+16,28324182804732.85,2486239030715.636,10423575428528.744,288651579372479.0,5166793788793413.0,2.2465583164543412e+16
10501.531995000581,3.615447582746253e+16,6.650717363111966e+16,28326256372799.65,2502192955151.0835,10490463337304.691,296031744705724.0,5298893795745701.0,2.4716453350540416e+16
11552.68519450064,3.615682436513549e+16,6.910910939100362e+16,28328096400611.69,2514187340177.849,10540750685072.262,302572272057496.2,5415964580489698.0,2.7192365138895e+16
12708.953713950705,3.615886887284663e+16,7.194208365813743e+16,28329698227609.58,2522931896097.998,10577412941960.697,308258033121803.2,5517735418287344.0,2.9915791290815924e+16
13980.849085345777,3.616061235796769e+16,7.503101458671157e+16,28331064210003.26,2529102776977.206,10603284901456.191,313099082577340.0,5604386344460671.0,3.2911453349817424e+16
15379.933993880357,3.616206649383469e+16,7.840376269633803e+16,28332203493595.707,2533310173299.537,10620924810091.885,317129736634341.25,5676531657087486.0,3.620654837030454e+16
16918.927393268394,3.616325072056666e+16,8.209132937781557e+16,28333131309294.438,2536076908248.565,10632524629584.893,320405941488071.9,5735172810475812.0,3.983099817243785e+16
18611.820132595236,3.6164190795789544e+16,8.61280505192326e+16,28333867837634.97,2537828721097.682,10639869297340.574,323001110207403.75,5781623895321089.0,4.381772315205847e+16
20474.00214585476,3.616491692704552e+16,9.055179485110368e+16,28334436745564.844,2538895149130.4355,10644340421803.783,325000810067150.94,5817416543542094.0,4.820294289813236e+16
22522.40236044024,3.61654616768557e+16,9.540418003793706e+16,28334863545105.89,2539518569914.747,10646954190811.766,326496845816115.75,5844194021915787.0,5.302650615704358e+16
24775.642596484264,3.616585786412802e+16,1.0073082157149886e+17,28335173949153.42,2539868277924.6367,10648420387211.45,327581371584939.4,5863605839521298.0,5.8332253033650424e+16
27254.206856132692,3.616613668306243e+16,1.065816296756451e+17,28335392397679.703,2540056488373.68,10649209484969.645,328341651063881.94,5877213959826457.0,6.4168412723321256e+16
29980.627541745966,3.616632622133809e+16,1.1301116763207467e+17,28335540896765.965,2540153744367.708,10649617244160.646,328855969017188.5,5886419621699092.0,7.05880405081349e+16
32979.69029592056,3.616645049024256e+16,1.2007908156429757e+17,28335638258729.977,2540202091021.0596,10649819944184.082,329190998357392.4,5892416214366454.0,7.764949820103731e+16
36278.65932551262,3.616652899505487e+16,1.2785060756044011e+17,28335699765530.44,2540225293506.596,10649917223716.312,329400687847700.5,5896169370603238.0,8.541698266465154e+16
39907.525258063884,3.616657679272009e+16,1.3639715806568211e+17,28335737213953.9,2540236105230.085,10649962553216.55,329526508004128.8,5898421370442453.0,9.396110745864309e+16
43899.277783870275,3.61666049225626e+16,1.4579698664907203e+17,28335759253069.17,2540241040050.98,10649983242992.053,329598724160617.9,5899713929839532.0,1.0335954308897339e+17
48290.20556225731,3.616662106522815e+16,1.5613592912344605e+17,28335771900494.02,2540243277892.1094,10649987996440.031,329638284881170.4,5900422002970873.0,1.1369772176719128e+17
53120.22611848305,3.616663028425258e+16,1.6750821980469834e+17,28335779123397.6,2540243925409.5684,10649990711118.861,329658924348432.4,5900791413952194.0,1.2506961316838523e+17
58433.24873033136,3.616663575027888e+16,1.8001738302768758e+17,28335783405909.51,2540244309327.357,10649992320671.59,329669158885558.4,5900974593132266.0,1.3757857750535483e+17
64277.57360336451,3.616663932676849e+16,1.937772053026346e+17,28335786208010.742,2540244560529.579,10649993373822.133,329673974878352.4,5901060789398315.0,1.5133830518744666e+17
70706.33096370097,3.616664206331228e+16,2.0891279257762256e+17,28335788352032.805,2540244752736.459,10649994179638.182,329676124646830.4,5901099264894408.0,1.6647384909748486e+17
77777.96406007107,3.616664451696278e+16,2.2556172376462134e+17,28335790274414.25,2540244925073.7373,10649994902152.064,329677037769612.6,5901115606645918.0,1.8312276057314125e+17
85556.76046607818,3.616664697553487e+16,2.4387531092808522e+17,28335792200651.62,2540245097756.6885,10649995626115.17,329677060170047.1,5901122300137394.0,2.0143633855931827e+17
94113.436512686,3.616664959415031e+16,2.6401997875717117e+17,28335794252279.473,2540245281680.6133,10649996397205.441,329677084028662.2,5901122725581079.0,2.2158100331748026e+17
103525.78016395462,3.616665240203275e+16,2.8617878537893203e+17,28335796452193.895,2540245478898.118,10649997224028.195,329677109611717.44,5901123181774701.0,2.437398066463579e+17
113879.3581803501,3.6166655485660744e+16,3.105530763347602e+17,28335798868148.785,2540245695483.1777,10649998132048.314,329677137707133.94,5901123682768390.0,2.6811409398592826e+17
125268.29399838512,3.6166658877262376e+16,3.3736431687586426e+17,28335801525394.363,2540245933699.4087,10649999130755.826,329677168608546.0,5901124233798226.0,2.949253305496049e+17
137796.12339822366,3.616666260793023e+16,3.6685610127764915e+17,28335804448290.92,2540246195730.6675,10650000229306.47,329677202599243.1,5901124839915808.0,3.244171105763305e+17
151576.73573804603,3.616666671157579e+16,3.9929636210082336e+17,28335807663407.29,2540246483958.793,10650001437685.94,329677239988199.44,5901125506630651.0,3.5685736658704416e+17
166735.40931185064,3.6166671226461656e+16,4.349797994298697e+17,28335811200721.438,2540246801071.249,10650002767161.21,329677281124029.2,5901126240159263.0,3.9254079862135616e+17
183409.95024303574,3.616667619089544e+16,4.742305528433093e+17,28335815090246.555,2540247149758.641,10650004229012.59,329677326355760.1,5901127046725445.0,4.3179154621286374e+17
201751.94526733932,3.616668165239452e+16,5.1740513803134605e+17,28335819369211.426,2540247533358.446,10650005837232.215,329677376116331.6,5901127934049276.0,4.7496612499604704e+17
221928.13979407327,3.616668765990488e+16,5.6489567705952e+17,28335824075964.184,2540247955308.505,10650007606232.982,329677430851696.94,5901128910082982.0,5.224566569790425e+17
244121.9537734806,3.616669426794191e+16,6.17133449391544e+17,28335829253216.406,2540248419437.8037,10650009552067.744,329677491058553.8,5901129983683577.0,5.7469442156163565e+17
268535.1491508287,3.616670153650738e+16,6.745927961157321e+17,28335834947978.168,2540248929960.705,10650011692404.988,329677557283589.94,5901131164599546.0,6.321537597617714e+17
295389.6640659116,3.616670953159624e+16,7.37795412186148e+17,28335841211955.188,2540249491512.496,10650014046677.84,329677630128093.25,5901132463552962.0,6.95356366456121e+17
324929.6304725028,3.6166718325791e+16,8.073150649672883e+17,28335848102014.035,2540250109191.1543,10650016636259.213,329677710253374.6,5901133892336228.0,7.648760089240631e+17
357423.5935197531,3.616672799891746e+16,8.837827810994604e+17,28335855680696.69,2540250788603.4185,10650019484655.195,329677798386740.2,5901135463918584.0,8.413437137122839e+17
393166.95287172846,3.6166738638766344e+16,9.67892547775894e+17,28335864016785.21,2540251535915.463,10650022617716.95,329677895328065.06,5901137192563284.0,9.254534679110661e+17
432484.6481589014,3.616675034188618e+16,1.0604075789763174e+18,28335873185923.14,2540252357908.5566,10650026063874.6,329678001957017.3,5901139093956439.0,1.0179684853869079e+18
475734.11297479155,3.616676321445406e+16,1.1621672020684923e+18,28335883271298.04,2540253262040.286,10650029854393.676,329678119240993.25,5901141185348548.0,1.1197280933830611e+18
