t(s),Total solute volume 1,Total retention volume 1,Total 1 volume 1,Total 2 volume 1,Total 3 volume 1,Total 4 volume 1,Total 5 volume 1,Total 6 volume 1
1.0,6154611055248327.0,8126122601203629.0,1971511545955295.2,0.0,0.0,0.0,0.0,0.0
2.1,9418367098313456.0,1.2500819768218744e+16,3016779612077849.5,312509694811.31274,4613708704885.455,17152586555545.893,36319582877318.23,7274669994861.895
3.3100000000000005,1.201195292362869e+16,1.6034530742615234e+16,3847412276767477.0,836816469195.7196,12286054999830.47,45495042356797.67,97094882984010.62,19452745409240.227
4.641000000000001,1.4299083301036848e+16,1.9205643558343136e+16,4579901905003737.0,1569891125818.1628,22970010372318.76,84429194215522.73,181348111415041.78,36341145173814.695
6.105100000000002,1.6414491959072134e+16,2.219350541738953e+16,5257396224837471.0,2526502930480.9966,36877239918167.945,134245049348844.67,289868088547193.0,58100352735272.516
7.7156100000000025,1.8425021466921504e+16,2.5089112201684812e+16,5901301247881224.0,3730216434451.485,54344809603947.85,195595555025912.78,424097418798524.25,85021487019227.72
9.487171000000004,2.036940353189259e+16,2.7947354155318108e+16,6524020832941371.0,5211181706271.345,75803948676846.39,269428331710396.8,585988890279596.0,117497438111089.1
11.435888100000005,2.2272261450886492e+16,3.0805535183898228e+16,7133440737208687.0,7005566965264.728,101772005290872.27,356989726056183.5,778036606666171.9,156029090824559.66
13.579476910000007,2.415016314114497e+16,3.3691432074432844e+16,7734866985121040.0,9155581112915.924,132852632771802.81,459830898022503.2,1003327157805350.0,201235678454157.38
15.937424601000009,2.6014637461750428e+16,3.66273190109273e+16,8331991806424167.0,11709780159232.854,169739982311130.03,579804531893651.1,1265573646069024.5,253861802319684.8
18.53116706110001,2.787383953590451e+16,3.963219348319589e+16,8927426954232053.0,14723546309165.854,213225397717982.34,719059705019102.9,1569136483906248.0,314781860106848.4
21.384283767210015,2.9733534601630196e+16,4.27231135625695e+16,9523018795315292.0,18259688065274.598,264205897064474.66,880044316077588.4,1919045509257727.5,385004755158965.3
24.522712143931017,3.1597703342965416e+16,4.591606181073053e+16,1.0120042180946786e+16,22389131756204.312,323694010052875.0,1065519020489451.4,2321033287005315.5,465680837514469.1
27.97498335832412,3.3468924109191084e+16,4.922654291128605e+16,1.0719322863678602e+16,27191685989325.61,392828697605060.3,1278581635936340.5,2781582307267241.5,558111611618506.56
31.772481694156536,3.534861927165937e+16,5.267002601294599e+16,1.1321316401581578e+16,32756866673578.76,472887178640014.3,1522699230349235.0,3307985054752283.0,663762009289849.5
35.949729863572195,3.723721700215175e+16,5.626229503289981e+16,1.1926159974353882e+16,39184772894268.99,565297535372352.4,1801745551503591.0,3908415290158429.0,784274906465515.4
40.544702849929415,3.9134259462440344e+16,6.001974500612935e+16,1.2533707036281216e+16,46587004238519.23,671651977317632.2,2120042455212965.2,4592009400506196.0,921487670132501.8
45.59917313492236,4.1038476789119784e+16,6.395964864963e+16,1.314355101402094e+16,55087609266425.81,793720633075816.6,2482404745169235.0,5368957223288929.0,1077450635688898.6
51.1590904484146,4.294783960368069e+16,6.8100409308260744e+16,1.3755042126006554e+16,64824053416814.55,933465719581506.0,2894188246888807.5,6250602074930498.0,1254447483755755.2
57.27499949325607,4.485959891819214e+16,7.246181170360666e+16,1.436730016412762e+16,75948193157304.69,1093055917264693.0,3361341115998001.0,7249549874714803.0,1455017520152144.0
64.00249944258168,4.677028650749934e+16,7.706527904486981e+16,1.4979214600146098e+16,88627177855393.03,1274879512134943.5,3890427378881620.5,8379849018549503.0,1681994849802905.8
71.40274938683986,4.867587491661972e+16,8.193414324504501e+16,1.5589495878992704e+16,103044626267444.86,1481563191225775.0,4488790607875264.5,9656893070772944.0,1938480953291219.5
79.54302432552385,5.057163403049989e+16,8.709393386506106e+16,1.6196629407546012e+16,119401209753842.06,1715979484628371.0,5164480054467112.0,1.1097864598820048e+16,2227945079346030.5
88.49732675807624,5.245228612505331e+16,9.257269073902782e+16,1.6798925253087922e+16,137915698037961.1,1981263842308559.0,5926388719323908.0,1.272169855532577e+16,2554212545890259.0
98.34705943388387,5.431203802720931e+16,9.840130479163461e+16,1.739452842668418e+16,158825717114129.6,2280826427695832.5,6784310836589881.0,1.454927095223192e+16,2921504404109438.5
109.18176537727226,5.614464625104429e+16,1.0461389122829195e+17,1.7981439733876808e+16,182388473687929.38,2618363727048352.5,7749011304285200.0,1.6603568549058006e+16,3334473189291188.0
121.09994191499949,5.7943500330226456e+16,1.1124819901941613e+17,1.855754245196794e+16,208881425796635.66,2997869482839115.0,8832300891957605.0,1.8909864425489988e+16,3798240011138044.0
134.20993610649944,5.970172362167219e+16,1.1834606037775611e+17,1.912063460078777e+16,238602912445748.28,3423645040057730.5,1.0047115328564824e+16,2.149590463695281e+16,4318434237275217.5
148.6309297171494,6.141229241525886e+16,1.2595388370109878e+17,1.9668467074613116e+16,271872774813540.3,3900309479873780.5,1.1407598457261024e+16,2.439210734783138e+16,4901236151446895.0
164.49402268886433,6.306817337230335e+16,1.341231931909225e+17,2.0198787643072384e+16,309033020796090.06,4432810172014001.0,1.2929190006436978e+16,2.763177598377445e+16,5553422992525388.0
181.94342495775078,6.466247809971368e+16,1.4291121804615179e+17,2.0709390439704124e+16,350448606169693.25,5026434669784318.0,1.4628718802510476e+16,3.1251328515675428e+16,6282418912593948.0
201.13776745352587,6.618863223825395e+16,1.5238153377160086e+17,2.119817009955566e+16,396508428598241.4,5686825194571681.0,1.652450261126426e+16,3.5290545651556572e+16,7096349547800745.0
222.25154419887846,6.764055483623699e+16,1.6260475775004202e+17,2.1663179192670212e+16,447626653098511.1,6419997285626603.0,1.8636456243074836e+16,3.9792841466420616e+16,8004102072914503.0
245.47669861876633,6.901284207255859e+16,1.7365930083913667e+17,2.210268705358213e+16,504244506571936.06,7232364489597654.0,2.098621008685283e+16,4.4805560823948616e+16,9015391806025222.0
271.024368480643,7.030094771607365e+16,1.856321764235543e+17,2.2515237569861216e+16,566832691073791.6,8130771184525138.0,2.359724183312211e+16,5.038030879346528e+16,1.0140836635432992e+16
299.1268053287073,7.150135124443411e+16,1.9861986815268733e+17,2.289970302375415e+16,635894566631116.1,9122535717492284.0,2.6495024781020756e+16,5.657331807530255e+16,1.139204074405211e+16
330.03948586157804,7.26117035209215e+16,2.1272925761805347e+17,2.3255330752503376e+16,711970240724144.1,1.0215505923582306e+16,2.970719675460747e+16,6.344586113404402e+16,1.278168929167062e+16
364.0434344477359,7.363093959232811e+16,2.2807861357527626e+17,2.3581779285005356e+16,795641669940943.0,1.1418128733142618e+16,3.3263754222023256e+16,7.106471420862984e+16,1.4323655864205672e+16
401.44777789250946,7.455934876324416e+16,2.4479864509496218e+17,2.3879140801562464e+16,887538828530746.0,1.273953493267621e+16,3.719727664341524e+16,7.95026805310367e+16,1.6033124594497084e+16
442.5925556817604,7.539859380120725e+16,2.6303362231468758e+17,2.41479473069926e+16,988346930132467.6,1.4189639226760498e+16,4.154318628726375e+16,8.883917987364184e+16,1.7926728888689314e+16
487.8518112499365,7.615167399572e+16,2.8294257029466406e+17,2.438915882543901e+16,1098814607884374.5,1.577925460949344e+16,4.63400486684736e+16,9.916091093505042e+16,2.002270865260339e+16
537.6369923749302,7.682283072446829e+16,3.047005438155266e+17,2.460413318350159e+16,1219762873166506.5,1.7520218806450096e+16,5.1629918312396296e+16,1.1056259210170243e+17,2.234108781384127e+16
592.4006916124232,7.741739885952134e+16,3.284999936699812e+17,2.479457844673739e+16,1352094596083958.8,1.942552935537148e+16,5.7458733714772936e+16,1.2314778489403032e+17,2.4903873803463964e+16
652.6407607736655,7.79416122594163e+16,3.545522378655191e+17,2.4962490648155264e+16,1496804194304223.5,2.1509482947415868e+16,6.387676419005893e+16,1.3702980308995902e+17,2.773528053620943e+16
718.9048368510321,7.84023760754506e+16,3.830890538645179e+17,2.511008088327356e+16,1654987192246739.0,2.378781413162008e+16,7.0939109900740616e+16,1.5233270932130304e+17,3.0861976359883148e+16
791.7953205361354,7.880702194622506e+16,4.1436441018856704e+17,2.5239696918479692e+16,1827849326361013.2,2.6277828514852076e+16,7.870625493707378e+16,1.691924000627417e+17,3.431335848283387e+16
871.9748525897489,7.916306376202016e+16,4.4865635707023405e+17,2.5353744975060384e+16,2016714923394711.8,2.8998526185843304e+16,8.72446721211386e+16,1.877577795289302e+17,3.8121855573846584e+16
960.1723378487239,7.947797120287445e+16,4.8626909609965786e+17,2.5454617199095452e+16,2223034357693972.5,3.1970712144731496e+16,9.662747749245869e+16,2.0819202311875453e+17,4.232326058404941e+16
1057.1895716335964,7.975897570745589e+16,5.2753524788559846e+17,2.5544629512435924e+16,2448390483854658.0,3.5217091800136124e+16,1.0693513237895325e+17,2.3067393163577808e+17,4.695709636698436e+16
1163.9085287969563,8.001291931865066e+16,5.728183347101796e+17,2.5625973191752412e+16,2694504021651719.5,3.876235080270622e+16,1.1825619162127277e+17,2.5539937840013667e+17,5.206701735400861e+16
1281.299381676652,8.024615782720557e+16,6.22515491941532e+17,2.570068383718916e+16,2963238149540027.5,4.2633223564346424e+16,1.3068826107814008e+17,2.8258295039690214e+17,5.770097708820891e+16
1410.4293198443174,8.046448039590523e+16,6.770604199531967e+17,2.577061560783803e+16,3256600950625218.0,4.685852461545863e+16,1.443381087574307e+17,3.124592505844771e+17,6.391283904146245e+16
1552.4722518287492,8.067313747926242e+16,7.36926582459266e+17,2.583745016436592e+16,3576749186439891.0,5.1469209005397976e+16,1.593238029307948e+17,3.452850305208762e+17,7.076120317212812e+16
1708.7194770116243,8.087684159360558e+16,8.026306547399338e+17,2.5902696893825984e+16,3925988784613555.0,5.649837276859903e+16,1.7577469421654886e+17,3.8134093478551334e+17,7.831112569722754e+16
1880.5914247127869,8.107982291662315e+16,8.74736222585165e+17,2.596771070864081e+16,4306774968633249.5,6.198125279866709e+16,1.9383270924099686e+17,4.209334058532849e+17,8.66345460983193e+16
2069.6505671840655,8.128589924105333e+16,9.538577293872165e+17,2.603371444341074e+16,4721710662505034.0,6.7955200304635944e+16,2.1365342831037702e+17,4.6439677624374246e+17,9.581100018149072e+16
2277.615623902472,8.149855446204954e+16,1.0406646654856591e+18,2.6101823986595868e+16,5173542770105631.0,7.445962274511322e+16,2.3540722190539555e+17,5.120954539442578e+17,1.059284456721413e+17
2506.3771862927197,8.17210191606551e+16,1.1358859904441615e+18,2.617307408526394e+16,5665155728608314.0,8.153588576054922e+16,2.5928045943789213e+17,5.644262058744306e+17,1.1708419039676083e+17
2758.0149049219917,8.195634865216531e+16,1.2403147748590134e+18,2.624844333937181e+16,6199561621947512.0,8.922716488740317e+16,2.8547678829944992e+17,6.218205306238977e+17,1.293859374347755e+17
3034.816395414191,8.22074956795755e+16,1.3548130431329044e+18,2.632887748211112e+16,6779886050187504.0,9.757823546670397e+16,3.1421847836949504e+17,6.84747103827428e+17,1.4295296625740371e+17
3339.2980349556105,8.247737644853366e+16,1.4803167921116529e+18,2.641531052846294e+16,7409348883348637.0,1.0663518813611211e+17,3.457478232207752e+17,7.537142723546843e+17,1.5791747253973808e+17
3674.227838451172,8.276892981132965e+16,1.6178411523866253e+18,2.650868373000384e+16,8091238985195073.0,1.1644505663380544e+17,3.803285840948735e+17,8.292725653960037e+17,1.744260937354168e+17
4042.6506222962894,8.308517011477029e+16,1.7684856492919201e+18,2.660996250060692e+16,8828881977792376.0,1.270553443989849e+17,4.182474562599513e+17,9.120171812611014e+17,1.9264165277871315e+17
4447.915684525919,8.342923459389515e+16,1.933439509121064e+18,2.672015159530175e+16,9625600139113898.0,1.3851343673681189e+17,4.5981552939022176e+17,1.0025903982432814e+18,2.127451584224393e+17
4893.707252978511,8.380442630733878e+16,2.1139869428731587e+18,2.6840308861072324e+16,1.0484663595725986e+16,1.5086588629678506e+17,5.0536970388502714e+17,1.1016838463411146e+18,2.3493810758609155e+17
5384.077978276362,8.421425355577429e+16,2.3115123250118845e+18,2.6971557860985692e+16,1.1409232107128602e+16,1.641575615284739e+17,5.5527401342993606e+17,1.210040564258769e+18,2.5944514227081987e+17
5923.485776103998,8.466246657213701e+16,2.5275051684798326e+18,2.7115099624150412e+16,1.240228695832462e+16,1.78430650923973e+17,6.099207906736653e+17,1.3284567534629166e+18,2.8651712026466893e+17
6516.834353714399,8.515309207297674e+16,2.763564779874068e+18,2.727222371017073e+16,1.346655280693722e+16,1.9372352058503418e+17,6.697315981340229e+17,1.4577831290293757e+18,3.164346635355497e+17
7169.5177890858395,8.569046605105046e+16,3.0214044607330504e+18,2.7444318709753444e+16,1.460440979791921e+16,2.100694293651375e+17,7.351578314420197e+17,1.5989257569535608e+18,3.4951224841360755e+17
7887.469567994424,8.627926285253814e+16,3.302855104223543e+18,2.7632881554169984e+16,1.581779649578639e+16,2.2749510785494243e+17,8.066805774879773e+17,1.7528442977321772e+18,3.8610518024595136e+17
8677.216524793868,8.692453167096882e+16,3.6098680140184535e+18,2.7839529201940024e+16,1.7108107403018406e+16,2.4601926280582774e+17,8.848112919468452e+17,1.9205574372538957e+18,4.266078537359552e+17
9545.938177273256,8.76317161958781e+16,3.9445167669993585e+18,2.806600492511207e+16,1.8476083604457156e+16,2.6565096896914026e+17,9.700892436410084e+17,2.1031334629596616e+18,4.714692867041034e+17
10501.531995000581,8.840668464878118e+16,4.3089979220219704e+18,2.831418792562855e+16,1.9921705353780876e+16,2.8638809587042854e+17,1.0630805439202908e+18,2.3016916742727583e+18,5.2119503003030035e+17
11552.68519450064,8.92557534418129e+16,4.705630373007531e+18,2.8586100906849068e+16,2.1444089335685628e+16,3.0821579621063354e+17,1.1643751128271936e+18,2.5173971050456975e+18,5.7635641523965414e+17
12708.953713950705,9.018570911814638e+16,5.13685314526148e+18,2.888391709438032e+16,2.3041398602469844e+16,3.311051766075944e+17,1.2745827801819758e+18,2.751454157908103e+18,6.376000057488013e+17
13980.849085345777,9.120382744170835e+16,5.60522144429422e+18,2.9209966343346468e+16,2.4710773848999064e+16,3.550122764290969e+17,1.3943281235757181e+18,3.00509697331786e+18,7.056595033374918e+17
15137.117604795842,9.212491014269507e+16,6.026195233642111e+18,2.950493949099005e+16,2.6162099196930456e+16,3.757837392865524e+17,1.502142822874617e+18,3.232582508221942e+18,7.678942144283753e+17
16409.012976190912,9.313549659940403e+16,6.483580311470293e+18,2.982857509332526e+16,2.7681407537272416e+16,3.9751344121048704e+17,1.6191961399829832e+18,3.4790523196872315e+18,8.371729313595941e+17
17565.28149564098,9.405081310080005e+16,6.894797305613223e+18,3.012170024340347e+16,2.900404719101454e+16,4.16417772026525e+17,1.724541453672864e+18,3.7001170810731535e+18,9.005444383054616e+17
18837.17686703605,9.5054607775498e+16,7.341716505768617e+18,3.0443159196758156e+16,3.0390582948141676e+16,4.3622066447196045e+17,1.8388342860990305e+18,3.9396495353281746e+18,9.711236699490454e+17
19993.445386486117,9.596389750110629e+16,7.743631282084451e+18,3.0734352864688076e+16,3.1599218461132136e+16,4.5347061508572774e+17,1.9416776338203174e+18,4.154525373653128e+18,1.0356601906983409e+18
21044.598585986176,9.67887960260479e+16,8.105464980539415e+18,3.099852033983725e+16,3.2657545410879636e+16,4.685655170807078e+17,2.034280850685567e+18,4.3474588390956795e+18,1.0947149119006998e+18
22200.867105436242,9.76933838796315e+16,8.499284084432967e+18,3.1288206929943584e+16,3.3773905305742052e+16,4.844759871808328e+17,2.1347669501874834e+18,4.556791523590052e+18,1.1604941273592717e+18
23252.0203049363,9.851308474542325e+16,8.853902635164066e+18,3.155070863269721e+16,3.4752331419940696e+16,4.984109662899934e+17,2.2252505179241715e+18,4.744841833669376e+18,1.2205831924824602e+18
24207.61412266363,9.925668063046547e+16,9.173524480113878e+18,3.1788838012844244e+16,3.56132670846229e+16,5.106649113146124e+17,2.306785188585424e+18,4.913896494547384e+18,1.275519099938527e+18
25258.767322163687,1.0007180532709934e+17,9.521833259027313e+18,3.204987311324941e+16,3.65262766031213e+16,5.236501232066774e+17,2.3953092432198574e+18,5.097550915031566e+18,1.3366750225257516e+18
26214.361139891014,1.0081056138388589e+17,9.835819831186956e+18,3.2286451529497004e+16,3.733028561720427e+16,5.35077518224041e+17,2.475092206999554e+18,5.262738286013469e+18,1.3924845214193021e+18
27083.082792370402,1.0148074586350429e+17,1.0119100871312472e+19,3.250107035983688e+16,3.804078039318892e+16,5.451698246893303e+17,2.547044339415066e+18,5.411400128083259e+18,1.4434639825082755e+18
28038.67661009773,1.0221531582038405e+17,1.0428139102486673e+19,3.2736307315787404e+16,3.8797789630200984e+16,5.5591485795330643e+17,2.6252146366025994e+18,5.573079187872842e+18,1.5001810072915517e+18
28907.398262577117,1.028811996854574e+17,1.0706992610191045e+19,3.2949548065767176e+16,3.946720043019623e+16,5.654106186302802e+17,2.6957277981721656e+18,5.718660106387841e+18,1.5518961388193403e+18
29697.14521937656,1.0348532901599022e+17,1.0958793077796293e+19,3.314301249682586e+16,4.0060964054259e+16,5.7382870792174784e+17,2.759371672961839e+18,5.849804458165324e+18,1.5990989331803023e+18
30565.86687185595,1.0414752486108678e+17,1.123374470618992e+19,3.3355071482379644e+16,4.069619231931307e+16,5.828282531837833e+17,2.8285621902599076e+18,5.992573215534593e+18,1.6515822585488412e+18
31355.613828655394,1.0474792726408678e+17,1.1482048250951463e+19,3.3547341722702716e+16,4.125994911470035e+16,5.908106479147558e+17,2.891026212370851e+18,6.121252206912344e+18,1.6994039656520223e+18
32224.33548113478,1.0540568833462854e+17,1.1753213374924605e+19,3.3757979772343268e+16,4.186348474153157e+16,5.993500495244256e+17,2.958949631559712e+18,6.261358397755542e+18,1.7525281432364265e+18
33014.08243793422,1.0600200346331786e+17,1.1998123554421367e+19,3.3948940467964556e+16,4.239951871982413e+16,6.069301287247453e+17,3.020294061599576e+18,6.387643681500862e+18,1.8009052199450734e+18
33732.03421684281,1.065430860745516e+17,1.2219460925575086e+19,3.4122213678293628e+16,4.287688057467267e+16,6.136773038247779e+17,3.0757165828934574e+18,6.50150311698496e+18,1.8450217415443656e+18
34521.78117364225,1.0713621849635797e+17,1.246137068688461e+19,3.431215465451624e+16,4.338980889415203e+16,6.209223053348959e+17,3.136000796268288e+18,6.625559957174054e+18,1.8940494460623378e+18
35239.73295255084,1.0767415864817683e+17,1.2680014838784762e+19,3.4484421034834892e+16,4.384681189817038e+16,6.273740566873998e+17,3.1904730888434775e+18,6.737476096487219e+18,1.9386862051855007e+18
36029.47990935028,1.0826358282750531e+17,1.2919003240481378e+19,3.4673173933218704e+16,4.433813441569934e+16,6.343054995083095e+17,3.249740133309656e+18,6.859439763399722e+18,1.9882429530872916e+18
36747.43168825887,1.0879808345251715e+17,1.3135025196932841e+19,3.4844338362523184e+16,4.477615633161177e+16,6.404819098876113e+17,3.3033153236095616e+18,6.969473900351793e+18,2.033335484937236e+18
37537.17864505831,1.093836677386273e+17,1.3371169258163999e+19,3.5031861076744496e+16,4.524739829289702e+16,6.471221824925646e+17,3.361606308312279e+18,7.089379748759494e+18,2.0833980914913874e+18
38255.1304239669,1.0991471124650976e+17,1.3584638041604882e+19,3.5201917978076536e+16,4.566781517562555e+16,6.530434598044558e+17,3.4143105172468465e+18,7.197560535932687e+18,2.1289390842206835e+18
38907.81385933834,1.103966778856634e+17,1.3777713847903185e+19,3.5356258865913428e+16,4.604373945428062e+16,6.583360278130008e+17,3.461971718730895e+18,7.295174426565228e+18,2.1704349985882138e+18
39625.76563824693,1.1092507197938578e+17,1.3988917806037348e+19,3.5525467005517736e+16,4.6449439451813304e+16,6.640442149463475e+17,3.513831416417302e+18,7.401609781964049e+18,2.216532414272922e+18
