t(s),Total solute volume 1,Total retention volume 1,Total 1 volume 1,Total 2 volume 1,Total 3 volume 1,Total 4 volume 1,Total 5 volume 1,Total 6 volume 1
1.0,4979684106815717.0,5254949822814240.0,275265715998509.44,0.0,0.0,0.0,0.0,0.0
2.1,7652940395563385.0,8076051107462176.0,423034653820056.0,34249248.54698058,432260819.0131793,12360440305.92706,51895798491.826614,11335329870.630733
3.3100000000000005,9805044616907800.0,1.0347244321557868e+16,541996027740221.0,92141466.77474943,1162596285.9431891,32771677970.310932,138938649951.4749,30711844128.156788
4.641000000000001,1.1729318396084584e+16,1.237806545228821e+16,648363779927728.9,173719842.00687185,2191572873.191064,61256362043.539,261291052973.4226,58363568233.85655
6.105100000000002,1.3535216588181282e+16,1.4284024714535012e+16,748188177421307.0,281051110.4564146,3545274292.636853,98554297894.76585,422321645598.2495,95246663495.97403
7.7156100000000025,1.5277782472215326e+16,1.6123215353487672e+16,844511812142427.9,417270966.7150333,5263253493.329194,145761572385.01776,626935512713.423,142691520339.96967
9.487171000000004,1.6989728420177338e+16,1.793016720566366e+16,939142906741095.9,586373552.0700094,7395883854.052021,204263529578.808,881283766667.3451,202349191577.72528
11.435888100000005,1.8692794724986404e+16,1.9727833394114264e+16,1033283188184708.1,793189170.2133862,10004080609.763088,275730344574.15894,1192753821333.439,276199507569.762
13.579476910000007,2.0402678906373136e+16,2.1532792252721416e+16,1127800361253754.5,1043436562.3344673,13159961123.184404,362136742528.4905,1570062287895.1091,366582666459.10583
15.937424601000009,2.213148232943873e+16,2.3357829415659388e+16,1223363348466598.5,1343816925.839033,16948030997.6844,465795427366.14404,2023405556568.7083,476244922265.17303
18.53116706110001,2.3889047480365956e+16,2.521334931019315e+16,1320516209725548.0,1702138958.3718505,21466761175.90915,589400927224.2,2564654521112.2085,608395753203.5359
21.384283767210015,2.5683744487269644e+16,2.7108205512537136e+16,1419721618304409.2,2127471994.895664,26830519172.794914,736083041476.751,3207590097675.9087,766775832704.5171
24.522712143931017,2.75229614563055e+16,2.905021860576088e+16,1521387964848162.0,2630327679.784777,33171860071.431793,909470151714.4572,3968178830013.716,955733437738.1063
27.97498335832412,2.9413425225384788e+16,3.1046515113063864e+16,1625887087484828.8,3222872415.2149305,40644205569.90465,1113763232994.7896,4864879836728.436,1180290046627.2747
31.772481694156536,3.1361420126069656e+16,3.3103758675720544e+16,1733566364203274.0,3919174032.0687513,49424954545.76735,1353821744251.554,5918929634192.969,1446089940617.5896
35.949729863572195,3.3372943354338148e+16,3.5228313593259732e+16,1844757301198702.2,4735487167.106634,59719081674.43634,1635262700900.41,7154396018786.571,1758824434420.7183
40.544702849929415,3.5453820935189624e+16,3.742636442493132e+16,1959781942983302.5,5690582966.149372,71763294928.74783,1964573870726.9802,8597411958579.784,2122107051197.2969
45.59917313492236,3.760979997530265e+16,3.970400621512274e+16,2078957971757472.2,6806129996.458148,85830838547.25458,2349240241026.0054,10273454318445.084,2532936534552.8984
51.1590904484146,3.984662375315434e+16,4.206731458436703e+16,2202602857975175.8,8107133863.341679,102237035061.7846,2797877358840.4365,12201640909562.889,2978110800167.3384
57.27499949325607,4.217008533889103e+16,4.452240167356802e+16,2331036823772827.0,9622442159.920784,121345647273.80554,3320353694138.8945,14387530985615.523,3440658135035.7124
64.00249944258168,4.458605900654324e+16,4.707546178075224e+16,2464584578241612.5,11385321995.836647,143576146330.0179,3927870940491.8447,16820512862531.62,3914850696101.086
71.40274938683986,4.710052458486745e+16,4.973280887582212e+16,2603576661563041.0,13434121975.903658,169412027413.08313,4632963967758.217,19481655214215.89,4410164060396.83
79.54302432552385,4.971959245192373e+16,5.2500906540974936e+16,2748350823632845.5,15813032134.951515,199410330072.92087,5449382903185.452,22358035674697.906,4940623478297.118
88.49732675807624,5.244952177061022e+16,5.538638882605324e+16,2899253027650319.5,18572953334.01099,234212488075.33334,6391838532866.867,25452318374980.0,5517085443335.609
98.34705943388387,5.5296727506348104e+16,5.839606765107054e+16,3056637832091175.0,21772488368.20613,274556636974.30093,7475638657148.209,28782917329997.97,6147427518716.328
109.18176537727226,5.826776993799687e+16,6.153691853429e+16,3220867803612405.0,25479066046.854996,321291490497.8267,8716299078685.622,32379214275193.707,6838508770294.026
121.09994191499949,6.136931199235815e+16,6.4816031748186216e+16,3392311150506592.5,29770203890.05215,375391824080.94574,10129248357230.486,36277013846455.46,7597181089913.154
134.20993610649944,6.460802563011878e+16,6.824051123377717e+16,3571336539908313.0,34734906583.57797,437975499580.0125,11729736815802.074,40515946118537.77,8430670409564.726
148.6309297171494,6.799042705678683e+16,7.181730005241237e+16,3758303981847688.5,40475185070.511406,510321819122.662,13533003819431.021,45138454971153.64,9346757983106.672
164.49402268886433,7.1522620593490664e+16,7.555291051747718e+16,3953550666749112.0,47107663981.2109,593890793344.8081,15554678417223.74,50189676361600.14,10353904001224.816
181.94342495775078,7.520993465615522e+16,7.945304102097688e+16,4157370842632604.0,54765223577.84921,690342656055.5425,17811325927251.73,55717735798341.195,11461352583775.242
201.13776745352587,7.905644189147589e+16,8.352207082560642e+16,4369989293370438.0,63598598352.14294,801556675292.3066,20321032100265.777,61774221481241.23,12679231905064.443
222.25154419887846,8.306436890114768e+16,8.77624383612478e+16,4591528718705960.0,73777830557.78596,929648032159.2765,23103935716550.69,68414723891735.29,14018655923039.145
245.47669861876633,8.723341746257787e+16,9.217392605550299e+16,4821972227053858.0,85493456414.9069,1076981302203.8745,26182660243621.297,75699399463739.16,15491831405106.914
271.024368480643,9.156003597077918e+16,9.6752892541598e+16,5061123081223877.0,98957288468.0417,1246178916606.8872,29582634421138.42,83693546258682.69,17112172710104.873
299.1268053287073,9.603669387913691e+16,1.0149150795517398e+17,5308564613666674.0,114402651866.11981,1440122930852.9292,33332318423410.984,92468192153277.8,18894426210978.953
330.03948586157804,1.006512206268637e+17,1.0637705723957152e+17,5563623709070236.0,132083936443.73874,1661948503044.6575,37463364643798.836,102100700569694.9,20854805984699.562
364.0434344477359,1.0538627258618982e+17,1.1139137854010966e+17,5825341365036457.0,152275340950.34476,1915027688064.1055,42010743766445.766,112675399783390.45,23011142304417.387
401.44777789250946,1.1021898719453387e+17,1.1651049915398205e+17,6092453600002662.0,175268711049.39713,2202942489264.8423,47012862403785.76,124284241369565.78,25383044472052.24
442.5925556817604,1.1512087425143584e+17,1.2170452180184302e+17,6363385469679191.0,201370409998.68262,2529446584538.5415,52511691870862.86,137027492270831.0,27992079591441.465
487.8518112499365,1.2005798259012429e+17,1.2693780155907571e+17,6636260302459967.0,230897212727.86505,2898415780143.013,58552920860343.875,151014463653648.0,30861968984478.785
537.6369923749302,1.2499136792155562e+17,1.3216944068026232e+17,6908925577917289.0,264171283895.8551,3313788077069.018,65186139023121.875,166364278319444.88,34018804086034.707
592.4006916124232,1.298778754468982e+17,1.3735411566945648e+17,7178996197791227.0,301514391646.43414,3779495291506.366,72465054272713.75,183206676997688.28,37491283813389.94
652.6407607736655,1.3467123825789883e+17,1.4244323767472048e+17,7443915203619727.0,343241621588.1622,4299389453498.475,80447744173530.6,201682862362885.5,41310975590558.91
718.9048368510321,1.3932347784566856e+17,1.4738643177353062e+17,7701031182850611.0,389654984572.02545,4877168652446.013,89196940927707.38,221946378030388.75,45512602416802.016
791.7953205361354,1.4378657413711442e+17,1.5213330077057744e+17,7947690561072671.0,441037443191.03485,5516308447124.218,98780349892353.98,244164018005087.2,50134358602239.266
871.9748525897489,1.480143480736619e+17,1.5663541337756707e+17,8181341630052747.0,497647991921.56696,6220006146200.101,109271002697900.05,268516759963438.8,55218257052779.91
960.1723378487239,1.5196447032979312e+17,1.608484256024658e+17,8399645536653928.0,559718482286.6667,6991145833394.666,120747647225299.27,295200713204899.06,60810511273033.98
1057.1895716335964,1.556004781978846e+17,1.647342108582996e+17,8600587714293574.0,627452850880.5394,7832291551909.538,133295177184041.56,324428068963153.56,66961955571307.48
1163.9085287969563,1.5889365411572192e+17,1.6826284416850426e+17,8782581662148172.0,701029251177.2626,8745714200652.043,147005103025441.03,356428036859442.06,73728507297405.81
1281.299381676652,1.6182460057024704e+17,1.7141426605673533e+17,8944555942592758.0,780605289450.5665,9733454197879.72,161976062643379.2,391447746440700.5,81171675324301.5
1410.4293198443174,1.643843443110288e+17,1.7417944979274045e+17,9086015168439494.0,866326124758.0684,10797416871607.03,178314364068829.5,429753086805228.7,89359119401658.44
1552.4722518287492,1.665748237850894e+17,1.765609177800421e+17,9207066910707856.0,958334650608.4326,11939491257145.357,196134542741888.22,471629450129182.75,98365265466142.23
1708.7194770116243,1.6840866020193194e+17,1.7857250190903392e+17,9308409026351556.0,1056782407891.7966,13161676378890.072,215559903095005.2,517382336373889.8,108271982494523.08
1880.5914247127869,1.6990818271044083e+17,1.8023831661235242e+17,9391275776327100.0,1161839394722.8157,14466193423453.158,236722999149073.97,567337766581330.2,119169327035978.22
2069.6505671840655,1.711037642771276e+17,1.8159100419499632e+17,9457345861221974.0,1273700664901.7659,15855558943135.611,259765993775974.6,621842441096434.1,131156362166267.62
2277.615623902472,1.72031614145631e+17,1.826694062122401e+17,9508620434506058.0,1392587654732.3271,17332594701691.158,284840824386799.25,681263567083388.0,144342058276430.47
2506.3771862927197,1.727312489236385e+17,1.8351589503119328e+17,9547283361533202.0,1518742609032.7305,18900354759965.496,312109097569765.56,745988267231289.5,158846283851279.28
2758.0149049219917,1.7324291102657142e+17,1.8417364897683645e+17,9575558571871238.0,1652415268628.204,20561959694378.184,341741639229576.7,816422468983854.9,174800895217226.38
3034.816395414191,1.736052083122902e+17,1.84684159866063e+17,9595579634955208.0,1793842012591.5195,22320340070005.875,373917640308136.2,892989161274323.4,192350935152926.03
3339.2980349556105,1.7385320844374867e+17,1.8508521923250346e+17,9609284462917918.0,1943218716519.8752,24177904070194.324,408823358082036.2,976125893702175.5,211655951266028.66
3674.227838451172,1.740171424679462e+17,1.8540954614975014e+17,9618343677003536.0,2100669459070.4766,26136154711309.816,446650353158244.6,1066281381322329.0,232891446149362.7
4042.6506222962894,1.7412177064399424e+17,1.8568411250846557e+17,9624125568158804.0,2266213688906.481,28195287982993.11,487593255286373.6,1163911066810475.0,256250472544029.22
4447.915684525919,1.7418636172651427e+17,1.8593011414106003e+17,9627694955803904.0,2439734467917.3643,30353803476701.355,531847051445617.56,1269471481290726.2,281945388061063.44
4893.707252978511,1.7422515627174352e+17,1.8616345106753808e+17,9629838792765006.0,2620949993011.742,32608154262441.7,579603876325497.0,1383413236990706.0,310209785457498.3
5384.077978276362,1.7424813993597658e+17,1.8639553304126448e+17,9631108899792638.0,2809389953595.0083,34952455154598.93,631049262747900.8,1506172481596662.0,341300616042320.7
5923.485776103998,1.742619483742442e+17,1.866342219457995e+17,9631871971919450.0,3004377649527.5146,37378261011470.16,686357786291885.0,1638160649159901.0,375500525522732.75
6516.834353714399,1.7427075456943757e+17,1.8688475343054122e+17,9632358613619102.0,3205018386504.6445,39874421894204.516,745688023900384.8,1779752359789592.0,413120423513675.5
7169.5177890858395,1.7427703820455094e+17,1.8715053168813248e+17,9632705855388368.0,3410194584790.379,42427021008565.016,809176747912187.4,1931271354641890.8,454502310045933.2
7887.469567994424,1.7428218912215786e+17,1.874337466874402e+17,9632990501724232.0,3618568247166.3276,45019403932926.53,876932298171457.8,2092974408465389.5,500022384741278.9
8677.216524793868,1.7428694033357706e+17,1.877358091229521e+17,9633253059777818.0,3828591784638.117,47632311901519.14,949027115287035.0,2265033243726888.0,550094466896784.75
9545.938177273256,1.7429165393244893e+17,1.8805762795109315e+17,9633513539310026.0,4038528495877.4824,50244135459236.56,1025489475340989.5,2447514582483351.0,605173757554715.1
10501.531995000581,1.742964953347373e+17,1.8839976833984285e+17,9633781081419706.0,4246484057518.2974,52831305430350.27,1106294537855789.4,2640358618590603.5,665760977751713.5
11552.68519450064,1.743015313858318e+17,1.8876252825048243e+17,9634059380068656.0,4450450087552.031,55368834385466.484,1191354903152959.5,2843356376388814.5,732406920567209.4
12708.953713950705,1.743067813690938e+17,1.891459653169346e+17,9634349500879658.0,4648360148572.99,57831013097111.19,1280510971911123.5,3056126643448225.0,805717458356347.4
13980.849085345777,1.7431224143030685e+17,1.8954989705227104e+17,9634651230863336.0,4838157484608.051,60192253119611.195,1373521508230761.0,3278093421573724.5,886359050691982.5
15379.933993880357,1.7431789528439254e+17,1.899738897293574e+17,9634963670084798.0,5017872413341.523,62428049574688.46,1470054925702686.0,3508465124097928.5,975064803091677.6
16918.927393268394,1.743237184675746e+17,1.9041724577269827e+17,9635285466644006.0,5185705753095.509,64516019053812.27,1569681938637226.0,3746217043423685.5,1072641131611845.4
18611.820132595236,1.7432967986042227e+17,1.9087899615176746e+17,9635614900840966.0,5340113130231.486,66436948484617.95,1671870338328376.2,3990078896663062.5,1179975093897840.0
20474.00214585476,1.743357422351902e+17,1.9135790250956243e+17,9635949915422498.0,5479883717461.689,68175774707546.92,1775982752769207.0,4238529494418728.0,1298042453336797.2
22522.40236044024,1.7434186259751526e+17,1.918524729235019e+17,9636288134464846.0,5604206163881.15,69722404692313.83,1881278308462751.2,4489800722578449.0,1427916549624130.5
24775.642596484264,1.7434799264908714e+17,1.9236099473027082e+17,9636626888941644.0,5712714463319.093,71072286151946.16,1986919111450655.8,4741893023790843.0,1570778056385276.2
27254.206856132692,1.7435407951306086e+17,1.9288158736963216e+17,9636963256810914.0,5805507485525.94,72226650481761.28,2091982375258939.0,4992604351975554.0,1727925714558551.8
29980.627541745966,1.7436006678703562e+17,1.9341227746925184e+17,9637294121204312.0,5883137957662.959,73192375618200.97,2195478820187796.2,5239574088132393.0,1900788139115564.0
32979.69029592056,1.743658959486153e+17,1.9395109725568742e+17,9637616248099862.0,5946569732994.055,73981454352089.38,2296377630031501.5,5480342598402528.0,2090936806453245.8
36278.65932551262,1.7437150810634963e+17,1.9449620576548138e+17,9637926383081534.0,5997105888541.757,74610099723905.02,2393637768594817.5,5712425961317473.0,2300100340525342.0
39907.525258063884,1.7437684605376058e+17,1.950460302535922e+17,9638221364847174.0,6036294000842.337,75097566496143.7,2486244837280605.5,5933403909619039.0,2530180227587862.0
43899.277783870275,1.7438185654415834e+17,1.955994227576142e+17,9638498250917652.0,6065818163388.341,75464807687944.77,2573251930449093.5,6141017303817192.0,2783268102420513.0
48290.20556225731,1.743864926613553e+17,1.9615582419079286e+17,9638754448645606.0,6087389239095.051,75733109163675.9,2653822182845137.0,6333269636372103.0,3061664763172353.5
53120.22611848305,1.7439071612121322e+17,1.9671542593874045e+17,9638987842401730.0,6102644982605.174,75922847025559.73,2727270002192296.0,6508525393230728.0,3367901087694282.0
58433.24873033136,1.7439449930840243e+17,1.9727931715910586e+17,9639196906128630.0,6113069874584.23,76052490256470.95,2793097466944000.0,6665596875992896.0,3704761041507019.0
64277.57360336451,1.7439782683989824e+17,1.9784960531543206e+17,9639380789741698.0,6119941085403.35,76137928450694.05,2851022183701752.0,6803810645986563.0,4075306986567343.0
70706.33096370097,1.7440069645940234e+17,1.9842949836217005e+17,9639539368555640.0,6124302640079.102,76192150407443.66,2900993167496547.5,6923045392757313.0,4482907520910806.0
77777.96406007107,1.744031207537039e+17,1.9902330939351126e+17,9639673338133016.0,6126965592763.229,76193174454113.58,2943192115200452.5,7023734944157908.0,4931268102268650.0
85556.76046607818,1.7440511914549542e+17,1.9963654075686582e+17,9639783771796924.0,6127035711149.104,76194018590916.83,2978018740686872.5,7106833310610478.0,5424464733973804.0
94113.436512686,1.7440672796513837e+17,2.002757069877725e+17,9639872677209546.0,6127092160451.168,76194698168744.84,3006060697158318.5,7173742838345044.0,5966981019592192.0
103525.78016395462,1.7440798931100666e+17,2.0094826929641235e+17,9639942380780832.0,6127136417800.523,76195230970774.67,3028050486744591.5,7226211512706664.0,6563753237785121.0
113879.3581803501,1.7440895123991885e+17,2.016624865267114e+17,9639995538191310.0,6127170169385.593,76195637296431.56,3044812768406290.5,7266206949439722.0,7220197223289235.0
125268.29399838512,1.7440966247527203e+17,2.0242730247610394e+17,9640034841958024.0,6127195124785.01,76195937727227.52,3057209756253217.0,7295786588380252.0,7942285681388075.0
137796.12339822366,1.7441017178973885e+17,2.0325219751936794e+17,9640062987320702.0,6127212995305.328,76196152865171.67,3066087388512839.0,7316968901934657.0,8736583085999836.0
151576.73573804603,1.7441052421497594e+17,2.04147097197572e+17,9640082462785754.0,6127225360990.438,76196301731997.08,3072230381134298.0,7331626267615697.0,9610310343966752.0
166735.40931185064,1.7441075935666883e+17,2.051223238027499e+17,9640095457013536.0,6127233611500.936,76196401057441.5,3076329065067115.5,7341405846451410.0,1.0571410442879892e+16
183409.95024303574,1.7441091030643302e+17,2.0618860260298774e+17,9640103798688742.0,6127238907935.591,76196464819640.56,3078960237424152.0,7347683898167011.0,1.1628620658547342e+16
201751.94526733932,1.7441103669766896e+17,2.0735553708827347e+17,9640110783228538.0,6127243342675.333,76196518208149.22,3078960612461184.0,7351553025107419.0,1.2791552208256472e+16
221928.13979407327,1.7441111983481894e+17,2.086348496398869e+17,9640115377492744.0,6127246259741.694,76196553325839.16,3078960859076182.5,7351553051042164.0,1.4070776717871318e+16
244121.9537734806,1.744111218282114e+17,2.1004199832285898e+17,9640115487650134.0,6127246329684.654,76196554167861.67,3078960864989368.5,7351553051653928.0,1.547792328985652e+16
268535.1491508287,1.744111218611269e+17,2.1158986016405594e+17,9640115489469070.0,6127246330839.572,76196554181765.39,3078960865087007.0,7351553051664027.0,1.7025785096196808e+16
295389.6640659116,1.744111218625209e+17,2.1329250809709904e+17,9640115489546114.0,6127246330888.493,76196554182354.22,3078960865091143.0,7351553051664456.0,1.8728433027763136e+16
324929.6304725028,1.7441112186367315e+17,2.1516542073562928e+17,9640115489609808.0,6127246330928.934,76196554182841.08,3078960865094554.0,7351553051664811.0,2.0601345665072796e+16
357423.5935197531,1.7441112186493962e+17,2.1722562453187546e+17,9640115489679786.0,6127246330973.3545,76196554183375.92,3078960865098315.0,7351553051665207.0,2.2661549459977956e+16
393166.95287172846,1.744111218663325e+17,2.194918485793175e+17,9640115489756734.0,6127246331022.228,76196554183964.33,3078960865102453.0,7351553051665618.0,2.492777350594544e+16
432484.6481589014,1.7441112186786442e+17,2.219846948761061e+17,9640115489841420.0,6127246331075.978,76196554184611.45,3078960865106990.5,7351553051666090.0,2.742061980111155e+16
475734.11297479155,1.744111218695499e+17,2.247268256145419e+17,9640115489934544.0,6127246331135.115,76196554185323.3,3078960865111993.0,7351553051666610.0,3.016275053776236e+16
