t(s),Total solute volume 1,Total retention volume 1,Total 1 volume 1,Total 2 volume 1,Total 3 volume 1,Total 4 volume 1,Total 5 volume 1,Total 6 volume 1
1.0,5397315888332732.0,5907257426569811.0,509941538237089.9,0.0,0.0,0.0,0.0,0.0
2.1,8239566940009632.0,9093515879264422.0,778468578692936.6,68061419995.54293,961823708163.2928,16090293443626.629,48414556874069.484,9945625116023.693
3.3100000000000005,1.0482497729893986e+16,1.167226231140279e+16,990373452586073.0,181820107307.55276,2567334874446.0186,41979410705167.5,128216355620512.72,26446207615284.574
4.641000000000001,1.2446724699021018e+16,1.3991335557982252e+16,1175947392468712.0,340254579682.4618,4802031526178.448,77157287983809.61,237258961949619.62,49104930453266.53
6.105100000000002,1.425083574635754e+16,1.6181455393217628e+16,1346394102799361.0,546179108302.8383,7705502613984.373,122045884273762.48,375902682535924.9,78025295528722.8
7.7156100000000025,1.595334120547539e+16,1.830928206081689e+16,1507241408925249.2,804244019561.0425,11343161814398.383,177470090873873.8,545566836947538.75,113515112760873.44
9.487171000000004,1.758769688490698e+16,2.0415363706223804e+16,1661650093946328.2,1120417881940.961,15798970877496.527,244539310191133.28,748514425997225.9,156043602422780.25
11.435888100000005,1.9174690843233668e+16,2.2527594275487364e+16,1811584143139364.8,1501826786265.0342,21173177716638.93,324603288181669.75,987805654150354.4,206235342279454.25
13.579476910000007,2.0727857508441516e+16,2.466707883652076e+16,1958322245440787.5,1956721634447.1367,27581852757297.53,419234410870430.5,1267259144723315.2,264866952652947.03
15.937424601000009,2.2256202347854956e+16,2.685107208126264e+16,2102715209449954.2,2494504763824.0996,35157261556353.438,530225873540314.25,1591413259091794.0,332863625005494.6
18.53116706110001,2.3765706287482276e+16,2.9094613705444812e+16,2245328095900943.5,3125788456598.0654,44048688430265.87,659600587895418.0,1965505854442606.8,411298402836742.56
21.384283767210015,2.5260207981076316e+16,3.1411521512402652e+16,2386523571812428.5,3862471632873.143,54423517969726.67,809626676545662.0,2395481402246971.0,501395891118677.0
24.522712143931017,2.6741944886380704e+16,3.3815043937993224e+16,2526513029833650.0,4717827068798.561,66468466339004.055,982836709580928.1,2888022862338943.0,604540156451257.0
27.97498335832412,2.821189906475894e+16,3.631832257799809e+16,2665389258405147.5,5706594532375.161,80390897538997.61,1182049215938956.8,3450601683801541.0,722285863022081.1
31.772481694156536,2.967002797149442e+16,3.893474554804803e+16,2803148246141607.5,6845076704376.286,96420180789892.72,1410391849571605.0,4091540392831670.0,856371830514434.5
35.949729863572195,3.1115426170904148e+16,4.16782378575479e+16,2939704460156984.0,8151235411053.817,114809054511610.72,1671325928982256.8,4820084461776905.0,1008736545805063.2
40.544702849929415,3.25464454046196e+16,4.45635167113265e+16,3074902189672155.0,9644786022477.357,135834966929302.27,1968672157959241.8,5646481784950104.0,1181535421173607.5
45.59917313492236,3.3960790230679576e+16,4.7606329535247416e+16,3208524581563780.5,11347288134026.18,159801366932405.84,2306637352543981.0,6582068974946434.0,1377159740447277.8
51.1590904484146,3.535560061935867e+16,5.082368667966308e+16,3340301443550403.5,13282230992925.113,187038923507034.12,2689842012581320.5,7639364136096960.0,1598257313575757.0
57.27499949325607,3.672752939661767e+16,5.423409725358873e+16,3469916560512959.5,15475112649698.182,217906659145516.75,3123348604890896.5,8832166014277777.0,1847754905494179.8
64.00249944258168,3.807282019291083e+16,5.78578143678065e+16,3597015058470083.0,17953512580030.844,252792993152740.97,3612690477153349.5,1.017565959580704e+16,2128882537732489.5
71.40274938683986,3.938738999758015e+16,6.171709465952631e+16,3721211203585330.0,20747158597641.63,292116705592003.2,4163901404963172.0,1.1686528395966846e+16,2445199793241016.5
79.54302432552385,4.066691920018607e+16,6.583647601635267e+16,3842096908433775.0,23887990308175.51,336327852389584.06,4783545898310354.0,1.3383073872673212e+16,2800624294051442.5
88.49732675807624,4.190695091623146e+16,7.024307672509574e+16,3959251115360648.0,27410223154751.82,385908687113861.9,5478750567436909.0,1.5285342643102278e+16,3199462572695724.5
98.34705943388387,4.3103000320138216e+16,7.496691872829709e+16,4072250125248766.5,31350419251776.36,441374674841157.06,6257237079795925.0,1.7415262484383902e+16,3646443624637340.0
109.18176537727226,4.425067356972077e+16,8.004127721135787e+16,4180678832447418.0,35747573609002.92,503275717164477.2,7127357534783953.0,1.9796788472395524e+16,4146755511236721.0
121.09994191499949,4.534579467311511e+16,8.550305833059443e+16,4284142710107589.5,40643226849432.08,572197742565022.2,8098133440315380.0,2.2456061057717824e+16,4706085479924017.0
134.20993610649944,4.638453733164107e+16,9.139320651674371e+16,4382280265703382.0,46081617869509.43,648764849560167.1,9179299885481466.0,2.542157838926562e+16,5330664177222538.0
148.6309297171494,4.73635574445047e+16,9.775714246018312e+16,4474775559208912.5,52109891733874.8,733642216478724.9,1.0381356944455224e+16,2.8724385757857296e+16,6027314645944300.0
164.49402268886433,4.828012068373824e+16,1.0464523263400589e+17,4561370255704149.0,58778379020695.7,827540005529581.8,1.1715630781190848e+16,3.239828561556693e+16,6803506913255325.0
181.94342495775078,4.913221848535289e+16,1.1211329108753627e+17,4641874583801613.0,66140962387103.92,931218483666981.4,1.3194347298704276e+16,3.648007219062295e+16,7667419083000175.0
201.13776745352587,4.991866513614314e+16,1.2022311430786106e+17,4716176508300452.0,74255543899902.12,1045494552794551.1,1.4830721423008098e+16,4.100979520873806e+16,8628005934976586.0
222.25154419887846,5.063916856108709e+16,1.2904305026833302e+17,4784248418416528.0,83184622412845.5,1171249823248382.0,1.6639065155333748e+16,4.603105758949509e+16,9695076098338992.0
245.47669861876633,5.129436811158354e+16,1.386486034220175e+17,4846150698601872.0,92995983971233.78,1309440277072351.0,1.8634917298580172e+16,5.159135215043374e+16,1.087937890177455e+16
271.024368480643,5.1885834233710584e+16,1.4912307839290922e+17,4902031698114253.0,103763500260987.2,1461107456346418.5,2.0835197221621948e+16,5.774244227246959e+16,1.2192702010385232e+16
299.1268053287073,5.2416027358077544e+16,1.60558266464974e+17,4952123848110791.0,115568021291471.39,1627390987750845.5,2.325838417158685e+16,6.454079113279008e+16,1.3647980945366444e+16
330.03948586157804,5.2888216542404936e+16,1.7305518060723613e+17,4996735976360637.0,128498339990573.84,1809542134115269.5,2.592472254794657e+16,7.204804350564161e+16,1.5259421560776432e+16
364.0434344477359,5.3306361985582936e+16,1.8672484657477408e+17,5036242208609936.0,142652199592745.22,2008937966543419.8,2.8856452353677936e+16,8.033156332106731e+16,1.7042636539699858e+16
401.44777789250946,5.367496904042725e+16,2.0168915940379786e+17,5071068177103269.0,158137310935648.66,2227095695558355.2,3.2078062937666896e+16,8.946502925264766e+16,1.901479698945893e+16
442.5925556817604,5.3998924229902984e+16,2.1808181615212154e+17,5101675528644597.0,175072346935087.12,2465686699385988.0,3.5616567362746124e+16,9.952908970446403e+16,2.1194800280043e+16
487.8518112499365,5.428332550638437e+16,2.3604933680909155e+17,5128545888503753.0,193587885712728.88,2726549844271951.0,3.950179446931046e+16,1.1061207782028765e+17,2.360345539462072e+16
537.6369923749302,5.453331924121378e+16,2.5575218575105427e+17,5152165459908331.0,213827281320682.25,3011703794979767.0,4.3766696061966136e+16,1.2281078665949674e+17,2.626368725216924e+16
592.4006916124232,5.475395511723932e+16,2.7736600588708144e+17,5173011314694095.0,235947450123973.22,3323358140910545.5,4.844766760399505e+16,1.3623130454060733e+17,2.920076171951091e+16
652.6407607736655,5.4950067450721576e+16,3.0108297677975725e+17,5191540180701416.0,260119569565089.16,3663923285172867.0,5.358488220387822e+16,1.5098991074162886e+17,3.2442533348089196e+16
718.9048368510321,5.5126187980025624e+16,3.27113306698319e+17,5208180201894977.0,286529692173477.1,4036019131186725.0,5.922263926118755e+16,1.6721403218947696e+17,3.601971824237449e+16
791.7953205361354,5.528649145341435e+16,3.5568686699049766e+17,5223325797145608.0,315379279773190.94,4442482632305141.5,6.5409730612994456e+16,1.8504326232912237e+17,3.996619488574128e+16
871.9748525897489,5.5434772035925416e+16,3.870549755717471e+17,5237335430670830.0,346885660246579.25,4886374235139120.0,7.21998281347141e+16,2.04630443861698e+17,4.431933621335251e+16
960.1723378487239,5.557444608831915e+16,4.2149233489543366e+17,5250531874046324.0,381282402240184.4,5370983150758638.0,7.965189734771502e+16,2.261428173001808e+17,4.912037673217309e+16
1057.1895716335964,5.5708575465946456e+16,4.592991285560253e+17,5263204406933237.0,418819592891785.44,5899831244079296.0,8.783064163690226e+16,2.4976323715632054e+17,5.441481905295214e+16
1163.9085287969563,5.583990511788302e+16,5.008032796522159e+17,5275612368928795.0,459763991406743.1,6476675159978067.0,9.680698125501563e+16,2.7569145692895808e+17,6.025288483004509e+16
1281.299381676652,5.597090923020649e+16,5.463628730677073e+17,5287989518727973.0,504399018468225.94,7105506124014811.0,1.0665857051686664e+17,3.041454828401655e+17,6.669001581925796e+16
1410.4293198443174,5.610384115333013e+16,5.963687427254309e+17,5300548750874318.0,553024529063385.25,7790546680716667.0,1.1747035560597678e+17,3.353629944221661e+17,7.378743158330378e+16
1552.4722518287492,5.624078357966163e+16,6.512472234247453e+17,5313486836233743.0,605956304965265.8,8536243472083312.0,1.2933517433648003e+17,3.696028275690849e+17,8.161275132623702e+16
1708.7194770116243,5.638369665120294e+16,7.114630648762513e+17,5326988966955196.0,663525193099598.6,9347255017272162.0,1.4235439808932514e+17,4.0714651250246835e+17,9.024068845592747e+16
1880.5914247127869,5.653446272033157e+16,7.775225028224872e+17,5341232985278581.0,726075807438179.8,1.0228433332751468e+16,1.56638614971098e+17,4.482998552068715e+17,9.975382779871845e+16
2069.6505671840655,5.669492728910558e+16,8.499764785184104e+17,5356393251332531.0,793964705005920.0,1.1184798132205054e+16,1.723083519750878e+17,4.9339454619151955e+17,1.1024349697415427e+17
2277.615623902472,5.6866936206398376e+16,9.294239932064847e+17,5372644157402947.0,867557941366973.5,1.2221502271411164e+16,1.8949483247239082e+17,5.427897748132651e+17,1.2181074534424955e+17
2506.3771862927197,5.705236954087041e+16,1.0165155784350648e+18,5390163328154639.0,947227908178132.5,1.3343787063831858e+16,2.0834076361903136e+17,5.9687382071283e+17,1.3456744626216877e+17
2758.0149049219917,5.7253172720840696e+16,1.1119568560199969e+18,5409134562640855.0,1033349356055421.9,1.4556926101689968e+16,2.2900114611301453e+17,6.560655860031895e+17,1.4863754116256934e+17
3034.816395414191,5.74713855898557e+16,1.2165121530306486e+18,5429750579391814.0,1126294511488613.8,1.5866156294526414e+16,2.5164409604168208e+17,7.208160225210121e+17,1.6415844749269056e+17
3339.2980349556105,5.770917001130443e+16,1.331008127297813e+18,5452215624414723.0,1226427208650705.5,1.7276595007863274e+16,2.7645166518059005e+17,7.916093975146924e+17,1.8128265675029594e+17
3674.227838451172,5.7968836597658136e+16,1.4563373475231153e+18,5476747996481569.0,1334095977839040.2,1.8793142478981836e+16,3.0362064187861805e+17,8.689643284011913e+17,2.0017955419234182e+17
4042.6506222962894,5.825287105952665e+16,1.5934617590938624e+18,5503582536485933.0,1449626064390386.5,2.0420369139298716e+16,3.333633094045516e+17,9.534345024988214e+17,2.210374983907869e+17
4447.915684525919,5.8563960577098024e+16,1.7434159522243594e+18,5532973118900294.0,1573310397825407.0,2.2162388119902976e+16,3.659081321218693e+17,1.0456089807864922e+18,2.440662071022733e+17
4893.707252978511,5.89050204948966e+16,1.907310133216636e+18,5565195173762503.0,1705399593227820.8,2.4022714094115972e+16,4.0150033184897043e+17,1.1461119656685531e+18,2.6949950634311334e+17
5384.077978276362,5.9279221527901704e+16,2.0863326827841723e+18,5600548256954924.0,1846091147585723.5,2.6004110748539276e+16,4.404023069604193e+17,1.255601891464602e+18,2.975985126781713e+17
5923.485776103998,5.969001753652633e+16,2.2817521680597253e+18,5639358674205554.0,1995518094283540.8,2.8108430589772356e+16,4.828938348619265e+17,1.3747696731137423e+18,3.2865533518926624e+17
6516.834353714399,6.014117376975938e+16,2.49491865796574e+18,5681982149294132.0,2153737498878576.5,3.0336452484224692e+16,5.2927198407230445e+17,1.504335923927947e+18,3.6299740406334144e+17
7169.5177890858395,6.0636795276711976e+16,2.727264176319798e+18,5728806508139277.0,2320719316128298.5,3.2687724256595816e+16,5.798506449184362e+17,1.6450469282581522e+18,4.0099255778562944e+17
7887.469567994424,6.118135493054585e+16,2.980302115157091e+18,5780254326230755.0,2496336276030863.0,3.5160419755247724e+16,6.349595675153098e+17,1.7976691317258583e+18,4.4305505062786176e+17
8677.216524793868,6.177972017659378e+16,3.255625424721916e+18,5836785455488772.0,2680355615120573.0,3.775122188514244e+16,6.949427721960748e+17,1.9629818939312643e+18,4.896526754622356e+17
9545.938177273256,6.243717718919241e+16,3.5549033996697795e+18,5898899306263347.0,2872433602867105.5,4.045524499247245e+16,7.601561712925311e+17,2.1417682426303928e+18,5.413152306560582e+17
10501.531995000581,6.315945058442166e+16,3.879876897468696e+18,5967136709423089.0,3072113910474964.0,4.3266011360425336e+16,8.309642135428858e+17,2.3348033845610624e+18,5.986445867999972e+17
11552.68519450064,6.395271618768121e+16,4.232351860121642e+18,6042081122239691.0,3278830904135020.0,4.617549707039667e+16,9.077353366620023e+17,2.542840781594732e+18,6.623266165804609e+17
12708.953713950705,6.482360362648435e+16,4.614191070599046e+18,6124358872948740.0,3491918887164898.0,4.917426168186825e+16,9.908359961701245e+17,2.766595710795359e+18,7.33145220565095e+17
13980.849085345777,6.577918396480053e+16,5.027304169572054e+18,6214637992045469.0,3710628089937316.5,5.225167300779874e+16,1.080622990973888e+18,3.0067257118978284e+18,8.11999343645755e+17
15379.933993880357,6.682694223815957e+16,5.47363608376134e+18,6313625617109418.0,3934148175348554.5,5.539623797513121e+16,1.1774341452680044e+18,3.2638115211641124e+18,8.999194633234723e+17
16918.927393268394,6.797472018015559e+16,5.955154213453117e+18,6422062581380966.0,4161638757370139.5,5.859603239409428e+16,1.2815766807174653e+18,3.538331903328629e+18,9.980911754940173e+17
18611.820132595236,6.923063723211711e+16,6.473834940335e+18,6540715950846816.0,4392267042757325.5,6.18392316661669e+16,1.3933140286303772e+18,3.830641376768188e+18,1.107876683044542e+18
20474.00214585476,7.0602977752726024e+16,7.031650312465051e+18,6670368368248870.0,4625250794277516.0,6.5114717115110664e+16,1.5128508827373737e+18,4.14094553857752e+18,1.230840577119798e+18
22522.40236044024,7.210004492517974e+16,7.630556092243694e+18,6811804251230046.0,4859904548096615.0,6.841272920606245e+16,1.6403171737199583e+18,4.469276177236423e+18,1.3687782583567521e+18
24775.642596484264,7.372997720614133e+16,8.272482726477949e+18,6965792452129145.0,5095685709170528.0,7.172552034873624e+16,1.775751557918954e+18,4.81546518992441e+18,1.5237490029184136e+18
26824.042811069743,7.52010613801555e+16,8.842758527786776e+18,7104773313100267.0,5294639769379288.0,7.452001235785992e+16,1.8953619423632392e+18,5.11868750845436e+18,1.6665885901486825e+18
29077.283047113768,7.680193320622832e+16,9.45478118162111e+18,7256015742597959.0,5496922267849030.0,7.736033485878814e+16,2.0223318381798922e+18,5.438454388267028e+18,1.8270797490987139e+18
31125.683261699247,7.824879062176224e+16,9.999114987677362e+18,7392707606034338.0,5669604862299875.0,7.978443612994069e+16,2.134761851964636e+18,5.72443492078949e+18,1.9688226757032049e+18
32987.86527495877,7.958710550852296e+16,1.0484378795071085e+19,7519145372726788.0,5820654461524579.0,8.190544509479997e+16,2.2374080555702036e+18,5.982515007212551e+18,2.0896233818507581e+18
34680.75801428561,8.095514674280723e+16,1.0917713846719058e+19,7648393879880075.0,5963629479457669.0,8.391779387373114e+16,2.341117595675352e+18,6.200253803907694e+18,2.1978574831601528e+18
36219.75141367365,8.256288226771771e+16,1.1304936332486377e+19,7800291966969269.0,6116680404499241.0,8.608074188611462e+16,2.4523732613344374e+18,6.374163232560155e+18,2.295839242066487e+18
37912.64415300049,8.501689039110322e+16,1.1721703245938074e+19,8032148043112717.0,6332156343919424.0,8.913255384935506e+16,2.5862883453391626e+18,6.543473580373954e+18,2.403427571597481e+18
39774.82616626001,8.880835320146792e+16,1.2166664733197292e+19,8390365337245230.0,6647296644059728.0,9.359219456701056e+16,2.735627813035125e+18,6.711920554961307e+18,2.521678155451092e+18
41823.22638084549,9.454370394049541e+16,1.2635585538824942e+19,8932229931148713.0,7108510477510415.0,1.0009447893876261e+17,2.8922424637352504e+18,6.880967834462413e+18,2.6516963173393695e+18
44076.46661688951,1.0266815668293824e+17,1.3120662218978906e+19,9699785500764032.0,7750488826033015.0,1.0908462396050261e+17,3.046275310825497e+18,7.05051031155203e+18,2.794673541631148e+18
46555.030876537945,1.1280403645005766e+17,1.3612111039870493e+19,1.065732471809172e+16,8545670435908589.0,1.2011707743714965e+17,3.188290079991162e+18,7.219784741602396e+18,2.9519121092357396e+18
49281.45156215122,1.2349808717390515e+17,1.4102569628236724e+19,1.1667539914823394e+16,9384064490789638.0,1.3162685272050638e+17,3.313642631721317e+18,7.387906343297773e+18,3.1248441089176095e+18
52280.51431632582,1.3317182602441115e+17,1.4590313320898763e+19,1.2581323527849036e+16,1.0144841643388202e+16,1.4196639507418005e+17,3.423408690009566e+18,7.553993888216794e+18,3.315046356402554e+18
55579.48334591788,1.4111891103276469e+17,1.5078176337212492e+19,1.3331973609051936e+16,1.0772818719638778e+16,1.504291460030734e+17,3.5212274616561766e+18,7.717042947807699e+18,3.524253078384084e+18
59208.34927846914,1.474639002365225e+17,1.5570492819282424e+19,1.3931274703273024e+16,1.1276304750695254e+16,1.5716879941254582e+17,3.6104363661582387e+18,7.875846058115212e+18,3.754370115905942e+18
63200.10180427553,1.5264000083818848e+17,1.6071033367711875e+19,1.4420157259142774e+16,1.1687723981262698e+16,1.626464049082382e+17,3.693118328968397e+18,8.029028858371832e+18,4.007491893384791e+18
67591.02958266257,1.5703855325352918e+17,1.658246314281766e+19,1.4835590709297614e+16,1.2036815948511816e+16,1.6727305704486835e+17,3.7702175541368576e+18,8.175140857989939e+18,4.285920713734682e+18
72421.0501388883,1.6090777113530854e+17,1.7106638947704048e+19,1.5201022407712258e+16,1.2342709111803766e+16,1.7131089140247318e+17,3.841932227082461e+18,8.312756276221699e+18,4.5921880503425864e+18
77734.07275073661,1.6437308676577078e+17,1.7645132795706538e+19,1.5528301458259602e+16,1.2615315798900974e+16,1.7489628567106934e+17,3.9080732734674284e+18,8.440568666310638e+18,4.929077866234461e+18
83578.39762376975,1.6748511148515638e+17,1.819969911165429e+19,1.5822209619529572e+16,1.2858897986104472e+16,1.780894228167166e+17,3.968317375508858e+18,8.557474001106678e+18,5.29965209313122e+18
90007.15498410621,1.7025872954909235e+17,1.877261348966281e+19,1.6084154065358902e+16,1.3074996141434978e+16,1.8091392273700707e+17,4.022363602161859e+18,8.662639504244399e+18,5.707278580763644e+18
97078.78808047631,1.7269698564908166e+17,1.9366895213753573e+19,1.6314423602376166e+16,1.3264218509387068e+16,1.833806990482396e+17,4.0700217324210647e+18,8.755555412746613e+18,6.155661741776798e+18
104857.58448648342,1.7480334463302858e+17,1.998644325617798e+19,1.651334654700504e+16,1.3427156075107518e+16,1.85500007643883e+17,4.1112567240540375e+18,8.836066458797071e+18,6.64887621842784e+18
113414.26053309125,1.765870119210032e+17,2.063610905402709e+19,1.6681793180020098e+16,1.3564778545336674e+16,1.87286595003376e+17,4.1462049412278717e+18,8.904380046725334e+18,7.191403887424131e+18
