t(s),Total solute volume 1,Total retention volume 1,Total 1 volume 1,Total 2 volume 1,Total 3 volume 1,Total 4 volume 1,Total 5 volume 1,Total 6 volume 1
1.0,3943678829116083.0,3998832012949716.0,55153183833629.13,0.0,0.0,0.0,0.0,0.0
2.1,6057505358153321.0,6146968473584986.0,84715414718095.56,562384608.7361884,5025879884.938812,221886854966.96844,3205410953893.681,1314814640206.2979
3.3100000000000005,7756409654070435.0,7877495556774381.0,108474887048121.33,1512063132.0030649,13512573489.73338,595449396590.1276,8494062930782.686,3506478691859.4795
4.641000000000001,9272717976293382.0,9425985855335266.0,129680726150547.64,2848856356.860891,25458500193.41949,1120725644490.353,15866238049633.754,6571881840687.651
6.105100000000002,1.0692925641338352e+16,1.0880420030493464e+16,149542582742621.72,4605576027.721389,41156888224.91929,1810701807788.5447,25506776678215.76,10588565462236.332
7.7156100000000025,1.2060342688628194e+16,1.228512399940065e+16,168666154562438.5,6832233906.737944,61054655122.73638,2685085455277.7437,37690772189381.805,15671411676320.39
9.487171000000004,1.3400520882727534e+16,1.3666524045170036e+16,187408787120238.75,9592464496.254345,85720446663.22351,3768927323632.8784,52765435183061.76,21964699904391.992
11.435888100000005,1.4730252044263668e+16,1.5042267846776318e+16,206005316748193.4,12963012871.44249,115840062378.8589,5092434719491.487,71148041003111.86,29641206966561.535
13.579476910000007,1.606146825273538e+16,1.642518505905475e+16,224622615535990.88,17034409709.52784,152222488522.90182,6691247178482.151,93329918899030.44,38903767807639.125
15.937424601000009,1.7403172735595732e+16,1.7825255759794904e+16,243386595112711.0,21912283455.851254,195811623921.35486,8606961973324.74,119883706932658.27,49988036273079.81
18.53116706110001,1.876249048178361e+16,1.9250689231033788e+16,262396899640525.03,27719121092.82944,247702014264.27576,10887837191262.52,151472937830961.28,63165653452066.87
21.384283767210015,2.0145282875032896e+16,2.0708561538754476e+16,281735501558280.7,34596416676.751915,309158051355.1582,13589649766215.234,188863648601032.38,78746109327956.98
24.522712143931017,2.15565326622465e+16,2.220521635459636e+16,301472085426513.9,42707208020.84259,381636640856.22955,16776710074886.836,232937977041194.84,97072575958360.86
27.97498335832412,2.3000609409352772e+16,2.3746530736669336e+16,321667760373886.6,52239050918.38288,466813780222.84064,20523054665082.277,284709828618863.06,118501630827526.92
31.772481694156536,2.4481482211724764e+16,2.533810011317847e+16,342378034893979.2,63407533948.56218,566615968051.626,24913860304916.91,345342476993624.8,143353505759222.56
35.949729863572195,2.600291227868784e+16,2.69853730374588e+16,363655510176941.2,76460467289.26265,683257636861.0883,30047131816230.31,416166509877052.9,171831888796627.28
40.544702849929415,2.7568609632605556e+16,2.869375361717132e+16,385552071558985.3,91682806670.94978,819285152276.9736,36035676042980.49,498692537274148.6,203952731730731.75
45.59917313492236,2.918229803300203e+16,3.046868213778477e+16,408119796436830.44,109402185888.3412,977626238460.1907,43009279015679.87,594607831652113.5,239560169253610.88
51.1590904484146,3.084767052531687e+16,3.2315699462697356e+16,431410332487806.2,129994883602.83286,1161643259541.6497,51116970367569.17,705747048295343.9,278462948086640.75
57.27499949325607,3.256832229072234e+16,3.4240496760796604e+16,455473958400630.2,153892393735.2907,1375191859223.9133,60529405161150.34,834040067310575.2,320601954949000.9
64.00249944258168,3.434776100328945e+16,3.624894819388857e+16,480359728551198.44,181589100778.82886,1622689430683.1409,71441539604823.33,981454298426617.1,366127345484926.56
71.40274938683986,3.618948208100736e+16,3.834712021594901e+16,506116525232657.56,213651354206.19778,1909196034154.1118,84075688543650.86,1149950678160411.2,415372395616575.6
79.54302432552385,3.809701988551543e+16,4.054124749986581e+16,532793774527049.25,250727788057.17084,2240506371069.703,98684867363299.86,1341465774538117.8,468791963762877.44
88.49732675807624,4.007390843666282e+16,4.283766307418069e+16,560440896743846.0,293560500758.01495,2623249361814.938,115556247693188.81,1557925153047668.5,526915530170549.5
98.34705943388387,4.212353217473062e+16,4.524267007654331e+16,589105219204400.2,342996645806.6664,3064991307464.817,135014570414549.52,1801286021484187.5,590324102756250.6
109.18176537727226,4.4248873489223224e+16,4.776234552356254e+16,618828445371413.4,399999910780.58105,3574337973488.777,157425376181543.4,2073600403707043.8,659643471194972.8
121.09994191499949,4.6452174166620824e+16,5.0402273059761784e+16,649641920228652.0,465661247541.4005,4161029921384.2363,183197910430440.56,2377086400575587.0,735545970737474.0
134.20993610649944,4.873451896213606e+16,5.3167211459952664e+16,681560806668737.5,541207930672.02167,4836022869197.716,212787480915544.66,2714203202676335.5,818763776756102.2
148.6309297171494,5.109545583717442e+16,5.606071658072854e+16,714578774786491.1,628011027868.4735,5611553878349.518,246697461347104.06,3087679377055259.5,910065565459121.9
164.49402268886433,5.353246963129541e+16,5.908474643780656e+16,748660641497095.0,727588058670.8151,6501164581897.484,285479845715568.06,3500596337601195.5,1010311229056575.8
181.94342495775078,5.6040630609498536e+16,6.223928644064767e+16,783737455913897.8,841602945074.404,7519700337330.684,329735368512243.8,3956392286293438.5,1120429417147104.4
201.13776745352587,5.861224339055445e+16,6.552203593575173e+16,819701590077246.2,971860266341.6106,8683258638179.127,380112187758543.25,4458889067282848.5,1241434581174114.5
222.25154419887846,6.1236615028295384e+16,6.8928195629194456e+16,856403496064861.0,1120294047668.427,10009088908376.186,437303408484286.0,5012307465498234.0,1374436847895476.0
245.47669861876633,6.3899958052120024e+16,7.245038950088262e+16,893650350501921.1,1288950575377.5007,11515439207899.436,502043420416827.44,5621280731569850.0,1520652556490754.8
271.024368480643,6.658544989186693e+16,7.607874603603054e+16,931206886073753.1,1479965192037.6392,13221349493695.305,575103183070265.4,6290869123868672.0,1681415636465222.2
299.1268053287073,6.927346139918018e+16,7.980115390683171e+16,968798587789972.2,1695533437979.725,15146394758600.836,657284705821495.9,7026577320482745.0,1858189965360780.2
330.03948586157804,7.194195880414589e+16,8.360369806991398e+16,1006117314644585.9,1937877425002.6738,17310385985732.598,749415092795260.0,7834375748840217.0,2052582846077247.2
364.0434344477359,7.456707579960824e+16,8.747127404905352e+16,1042829300379926.9,2209208966143.3345,19733042515411.098,852340653943096.4,8720726296780966.0,2266359746859577.5
401.44777789250946,7.712384491524906e+16,9.138837035584805e+16,1078585381751908.0,2511691725966.243,22433655980877.65,966921723689659.6,9692612533205014.0,2501460454245416.0
442.5925556817604,7.958706874698354e+16,9.534000032980754e+16,1113033182478379.1,2847405433861.0547,25430772851057.273,1094028968555935.8,1.075757445268982e+16,2760016800814955.0
487.8518112499365,8.19323008575882e+16,9.931275396465549e+16,1145830830732655.0,3218315892085.0024,28741928705419.574,1234542085282064.5,1.1923747801538656e+16,3044372144916387.5
537.6369923749302,8.413689296606557e+16,1.0329592710366165e+17,1176661603485477.8,3626254926536.059,32383471026621.215,1389351858477056.0,1.319990815200704e+16,3357102797673311.5
592.4006916124232,8.618105036387398e+16,1.0728267056572742e+17,1205248685733560.5,4072914352567.197,36370506593119.0,1559366519148914.5,1.4595519963675268e+16,3701041612350186.0
652.6407607736655,8.804882365485286e+16,1.1127108750325835e+17,1231369039109489.2,4559857250708.751,40717002628542.41,1745523177112142.0,1.6120790800928798e+16,4079303971375761.5
718.9048368510321,8.972895525073152e+16,1.152651968394311e+17,1254865239225983.2,5088548227233.297,45436056470816.23,1948804753512183.0,1.7786730565373752e+16,4495316425889484.5
791.7953205361354,9.121549723920202e+16,1.192756776143418e+17,1275654115738659.0,5660401867251.349,50540326617660.93,2170262298310162.8,1.960521497197117e+16,4952848260635072.0
871.9748525897489,9.250812638043026e+16,1.2332031661091482e+17,1293731156916669.5,6276845462473.512,56042590258369.06,2411041861692530.5,2.158905150334513e+16,5456046272809387.0
960.1723378487239,9.361210365122144e+16,1.2742410141494362e+17,1309169943453653.2,6939388722515.952,61956362451612.31,2672414267124911.5,2.375204473470517e+16,6009473067264074.0
1057.1895716335964,9.45378591603302e+16,1.3161893253114549e+17,1322116343377671.5,7649690164071.707,68296485332460.52,2955805329589421.0,2.610905633866931e+16,6618149183682398.0
1163.9085287969563,9.530022753483725e+16,1.3594296730554827e+17,1332777819083489.8,8409608161632.035,75079580533071.45,3262823516187101.5,2.8676050957240372e+16,7287598289505118.0
1281.299381676652,9.591738203941027e+16,1.404396559295869e+17,1341408521386651.0,9221222612059.174,82324239846074.39,3595281214522246.0,3.147013602686221e+16,8023902664947301.0
1410.4293198443174,9.640961925877712e+16,1.4515655471029632e+17,1348292293877673.0,10086820743988.309,90050896731360.53,3955207822072254.0,3.4509546202258884e+16,8833751415834867.0
1552.4722518287492,9.679805158449957e+16,1.5014404479117712e+17,1353724387997869.0,11008834228948.143,98281264177620.97,4344850397439114.0,3.781362140976509e+16,9724506913068956.0
1708.7194770116243,9.710339788840741e+16,1.5545407866355206e+17,1357994551247542.0,11989731004653.615,107037369351758.53,4766662275276758.0,4.140272655889887e+16,1.0704270289365014e+16
1880.5914247127869,9.734496286282082e+16,1.6113906820857462e+17,1361372753816013.2,13031863952894.43,116340203972168.88,5223279237338202.0,4.5298126430990296e+16,1.1781954855684372e+16
2069.6505671840655,9.753989108539666e+16,1.6725099585516733e+17,1364098757104446.8,14137286053526.275,126208075991933.0,5717484884872234.0,4.952180905814927e+16,1.2967366707599182e+16
2277.615623902472,9.770273185928789e+16,1.738407866495988e+17,1366376028291306.8,15307544499321.89,136654773695408.75,6252167555164860.0,5.409625555534921e+16,1.4271293333310774e+16
2506.3771862927197,9.784530416952286e+16,1.8095793220398944e+17,1368369851879751.2,16543467202254.564,147687661785089.62,6830271267120393.0,5.904415465970356e+16,1.5705601126775272e+16
2758.0149049219917,9.79768124432986e+16,1.8865031684309482e+17,1370208948619426.2,17844953924266.133,159305818430572.25,7454742624411574.0,6.438805926758364e+16,1.728334278682674e+16
3034.816395414191,9.810413976911573e+16,1.969641689246754e+17,1371989576106542.5,19210781682399.53,171498299304842.28,8128474523663437.0,7.014998032586455e+16,1.901887564893796e+16
3339.2980349556105,9.823223813728706e+16,2.0594404963006765e+17,1373780986179809.5,20638431215140.87,184242589187794.4,8854246224750091.0,7.635091120261062e+16,2.092799205883702e+16
3674.227838451172,9.836454313684042e+16,2.1563279672458003e+17,1375631224322198.2,22123939229159.75,197503283348741.94,9634658192176832.0,8.30102739806369e+16,2.3028062968025696e+16
4042.6506222962894,9.850335836056454e+16,2.2607135784156083e+17,1377572505436740.8,23661780572805.906,211231035859109.66,1.0472059391530942e+16,9.014527874696696e+16,2.5338196020630184e+16
4447.915684525919,9.865017640722006e+16,2.372984711931493e+17,1379625702953319.0,25244785537877.066,225361821419781.78,1.1368464566185924e+16,9.77701883946303e+16,2.7879409515201816e+16
4893.707252978511,9.88059234676805e+16,2.4935017601731984e+17,1381803769281975.0,26864099752729.527,239816577457661.62,1.2325459424957606e+16,1.058954849127672e+17,3.06748237654222e+16
5384.077978276362,9.897112963572994e+16,2.6225915695156266e+17,1384114117550979.5,28509196795442.617,254501317002440.28,1.334409253870976e+16,1.1452693859798235e+17,3.3749871547791724e+16
5923.485776103998,9.91460361397867e+16,2.760539444486682e+17,1386560121205963.0,30167955783957.87,269307821805033.5,1.4424753937302652e+16,1.2366458896427622e+17,3.713252950850813e+16
6516.834353714399,9.933065429260834e+16,2.9075800775186515e+17,1389141938402043.2,31826816922200.52,284115031558831.6,1.5567041807528878e+16,1.3330165526207283e+17,4.0853572602772696e+16
7169.5177890858395,9.952479072407322e+16,3.063887893452609e+17,1391856864876979.2,33471026629859.336,298791232982303.1,1.6769620261427294e+16,1.4342340537860866e+17,4.4946853856662536e+16
7887.469567994424,9.972805119878213e+16,3.229567419269145e+17,1394699387340934.5,35084980042129.42,313197118199367.8,1.8030072864400412e+16,1.540060244024495e+17,4.944961197570059e+16
8677.216524793868,9.993983247325714e+16,3.404644420751993e+17,1397661069604757.5,36652662181571.49,327189723948542.06,1.9344758493412464e+16,1.65015538074372e+17,5.440280957842332e+16
9545.938177273256,1.0015930910510722e+17,3.589058692800132e+17,1400730368113663.8,38158180114486.5,340627182887246.9,2.0708678124441708e+16,1.7640686120765184e+17,5.985150511169661e+16
10501.531995000581,1.0038542025838872e+17,3.7826595426255936e+17,1403892447428169.5,39586367398560.17,353374120006327.1,2.2115363253020724e+16,1.881230560044892e+17,6.584526181182722e+16
11552.68519450064,1.0061686036779592e+17,3.98520514895656e+17,1407129049669594.8,40923430035401.38,365307419221396.1,2.3556798672800556e+16,2.0009489853990634e+17,7.243859741622682e+16
12708.953713950705,1.0085207685643738e+17,4.1963670905723386e+17,1410418462607471.5,42157591391502.836,376321980334455.94,2.5023394013072236e+16,2.1224086144439178e+17,7.969147870899877e+16
13980.849085345777,1.0108927771618122e+17,4.415741381562217e+17,1413735625671254.0,43279684053531.27,386336001808322.1,2.6504019401843144e+16,2.2446762432195187e+17,8.766986540471203e+16
15379.933993880357,1.0132645143549046e+17,4.6428672909307296e+17,1417052408636601.8,44283631556396.71,395295279963496.4,2.7986120423493868e+16,2.3667121757190582e+17,9.64463083420259e+16
16918.927393268394,1.0156140131581688e+17,4.877255021224769e+17,1420338091529535.0,45166764536502.87,403176029670418.2,2.945592567818539e+16,2.4873888676594694e+17,1.0610060747679208e+17
18611.820132595236,1.017917955187945e+17,5.1184229393753734e+17,1423560064518707.5,45929925717486.8,409985819640197.1,3.089875624498074e+16,2.605517306275282e+17,1.167205357363575e+17
20474.00214585476,1.020152331475128e+17,5.3659444696275437e+17,1426684752036779.2,46577336646949.766,415762380711332.3,3.2299439850273732e+16,2.7198811406957862e+17,1.2840263542599373e+17
22522.40236044024,1.0222932525857965e+17,5.6195039722814374e+17,1429678745701475.5,47116224962109.11,420570276400974.0,3.364282345978466e+16,2.8292778869598157e+17,1.4125309456673334e+17
24775.642596484264,1.0243178797140373e+17,5.878959975528315e+17,1432510106409837.5,47556240889842.164,424495692148861.5,3.49143666746248e+16,2.932565695748194e+17,1.553887112925351e+17
27254.206856132692,1.0262054291653634e+17,6.144413076845004e+17,1435149769064716.0,47908720684614.914,427639858515764.8,3.610078559966105e+16,3.028713255760188e+17,1.709379552440183e+17
29980.627541745966,1.0279381836862946e+17,6.416274809386961e+17,1437572956874016.2,48185876932469.05,430111821945786.56,3.7190704265939944e+16,3.1168495188200845e+17,1.8804213576636698e+17
32979.69029592056,1.0295024284898418e+17,6.695332945755516e+17,1439760490339297.2,48400005813682.84,432021367380754.6,3.817526029446931e+16,3.1963092191656064e+17,2.0685668765200317e+17
36278.65932551262,1.0308892211725824e+17,6.982808281153207e+17,1441699863948153.8,48562796389185.664,433472852083305.4,3.904860568966688e+16,3.2666697862704826e+17,2.275525861689274e+17
39907.525258063884,1.0320949065203485e+17,7.280398089111716e+17,1443385966103953.5,48684807037626.836,434560532006361.6,3.980824476539072e+16,3.327775379953601e+17,2.5031790419323814e+17
43899.277783870275,1.0331213020145491e+17,7.590302312965852e+17,1444821338544664.0,48775143375977.555,435365687140246.9,4.04551608876977e+16,3.3797445260152026e+17,2.753595254368528e+17
48290.20556225731,1.0339755083361482e+17,7.91523017960399e+17,1446015911337487.2,48841337316883.766,435955542690820.3,4.099370232686836e+16,3.422959229532497e+17,3.029050290553219e+17
53120.22611848305,1.0346693392847266e+17,8.258387187153225e+17,1446986205642447.5,48889396294946.9,436383709597983.75,4.143122361771384e+16,3.458035394866516e+17,3.332047623709491e+17
58433.24873033136,1.03521841224253e+17,8.623445048949562e+17,1447754061763439.0,48923971653253.9,436691688998822.5,4.177750905365931e+16,3.4857766480131757e+17,3.665341200933105e+17
64277.57360336451,1.0356409860230075e+17,9.014499753924088e+17,1448345013927939.8,48948588872359.516,436910928901886.8,4.204403430769718e+16,3.507115876480327e+17,4.0319605030267565e+17
70706.33096370097,1.0359566688310554e+17,9.436024938414821e+17,1448786483423941.2,48965888805056.77,437064979168380.6,4.224314500653386e+16,3.5230505498792896e+17,4.435238096125154e+17
77777.96406007107,1.0361851371315347e+17,9.89282880653587e+17,1449105986992002.0,48977844078439.54,437171424757936.25,4.238724233637152e+16,3.534578769876597e+17,4.878839923605731e+17
85556.76046607818,1.036345001558795e+17,1.0390022602722236e+18,1449329550847973.0,48985932584471.94,437243435726351.94,4.248806243004621e+16,3.5426427737814355e+17,5.366798613889946e+17
94113.436512686,1.0364529290600933e+17,1.0933007097681866e+18,1449480483038093.5,48991265381765.36,437288838598146.2,4.2556118502939496e+16,3.548085268273276e+17,5.903550109448927e+17
103525.78016395462,1.036523081529844e+17,1.1527481156624401e+18,1449578588393157.5,48994580857427.01,437318350276115.4,4.260034580469077e+16,3.551621747803203e+17,6.493973954049188e+17
113879.3581803501,1.0365668912998306e+17,1.2179473137630374e+18,1449639854561520.0,48996651350792.41,437336780123675.3,4.262795631335042e+16,3.553829340175312e+17,7.143437610161377e+17
125268.29399838512,1.036593121360302e+17,1.289539359537505e+18,1449676536226305.2,48997891009560.72,437347814555062.44,4.2644478206793816e+16,3.55515025618386e+17,7.857845213345029e+17
137796.12339822366,1.0366081479633275e+17,1.3682105353455526e+18,1449697550314887.8,48998601181772.64,437354135928092.1,4.265393358624388e+16,3.55590615584767e+17,8.643691210907827e+17
151576.73573804603,1.0366163707572234e+17,1.4547006296881518e+18,1449709049555190.2,48998989799193.03,437357595082726.2,4.265909732195786e+16,3.5563189230038374e+17,9.508119373556515e+17
166735.40931185064,1.0366206648681992e+17,1.549812045964e+18,1449715054693424.8,48999192743149.58,437359401523873.94,4.2661782433643464e+16,3.556533518116384e+17,1.0458987715829356e+18
183409.95024303574,1.0366228071551979e+17,1.6544194090823137e+18,1449718050594004.5,48999293989764.016,437360302738425.94,4.266310912476755e+16,3.556639502820769e+17,1.1504939913126287e+18
201751.94526733932,1.0366238344973414e+17,1.769479492175067e+18,1449719487289891.8,48999342542975.72,437360734919398.1,4.2663730872798936e+16,3.556689121592507e+17,1.265548386128529e+18
221928.13979407327,1.0366243465132606e+17,1.8960411840665403e+18,1449720203323171.5,48999366741357.336,437360950313593.8,4.266374779031731e+16,3.55671111733429e+17,1.3921078093710876e+18
244121.9537734806,1.0366246556624898e+17,2.0352561175161587e+18,1449720635655701.0,48999381352057.51,437361080366090.8,4.2663758004845864e+16,3.5567113030751725e+17,1.5313226825401715e+18
268535.1491508287,1.0366247190273114e+17,2.1883918937451735e+18,1449720724268805.5,48999384346741.92,437361107022324.75,4.2663760098483464e+16,3.5567113411438976e+17,1.6844584464139338e+18
295389.6640659116,1.0366247815563253e+17,2.356840529081707e+18,1449720811713068.5,48999387301925.24,437361133326948.44,4.266376216448695e+16,3.5567113787091174e+17,1.8529070695583393e+18
324929.6304725028,1.0366248501653736e+17,2.5421331603476746e+18,1449720907660008.8,48999390544457.1,437361162189312.3,4.266376443137853e+16,3.5567114199269555e+17,2.0381996874466665e+18
357423.5935197531,1.0366249256311224e+17,2.745954004988115e+18,1449721013195773.2,48999394111043.54,437361193936146.2,4.266376692482047e+16,3.5567114652640416e+17,2.2420205173725304e+18
