t(s),Total solute volume 1,Total retention volume 1,Total 1 volume 1,Total 2 volume 1,Total 3 volume 1,Total 4 volume 1,Total 5 volume 1,Total 6 volume 1
1.0,2435946652399795.0,2438352893898794.0,2406241499006.229,0.0,0.0,0.0,0.0,0.0
2.1,3702437643969444.5,3777542435669318.0,3657288176197.4424,16540755605.165417,73707832025.31366,1294351973909.6172,24626953231189.215,45435949730944.31
3.3100000000000005,4687375223006033.0,4881886051118098.0,4630214867909.708,43964588434.9816,195912114362.97668,3440752980727.2505,65462241047354.695,120737742513275.88
4.641000000000001,5535866850674685.0,5894726113070277.0,5468359514073.578,81816838112.23035,364586854318.1586,6404032460560.005,121837615919800.38,224702850808713.8
6.105100000000002,6300919493016530.0,6871045775601962.0,6224082681758.671,130529042362.9997,581655080665.1001,10218452125227.334,194405703649072.7,358565860006345.4
7.7156100000000025,7008093744863412.0,7840002170638847.0,6922633264400.182,190911991605.4158,850729829923.4934,14948079650758.705,284386104001337.6,524609967037406.06
9.487171000000004,7671577682083863.0,8820416242233536.0,7578026319889.244,264015400594.7845,1176488828180.579,20675847792550.844,393357354530922.0,725786827277548.8
11.435888100000005,8299902092594989.0,9826274822277762.0,8198688606556.298,351076043475.8816,1564443377275.808,27499540356301.84,523180615085085.6,965578366214081.2
13.579476910000007,8898435593886700.0,1.0869141942406384e+16,8789923273688.237,453496564519.46136,2020843936084.4243,35530186426615.734,675969137856931.2,1247942760461823.0
15.937424601000009,9470634570614122.0,1.1959381250093856e+16,9355144556598.26,572837506939.9338,2552644603713.0127,44891499177311.17,854077585824776.9,1577296967810389.0
18.53116706110001,1.0018736033241904e+16,1.310685039941368e+16,9896562186107.738,710816050045.8612,3167497496434.421,55719852254864.195,1060101552442054.5,1958518085742282.2
21.384283767210015,1.0544173227109322e+16,1.4321335805424414e+16,10415591929404.865,869308685226.8081,3873764677275.1123,68164579719473.58,1296883210189422.8,2396956123114281.0
24.522712143931017,1.1047841135408964e+16,1.5612849845490098e+16,10913117855311.695,1050356539438.2968,4680541884116.252,82388501685482.23,1567521230378464.2,2898454961738341.0
27.97498335832412,1.1530274689688668e+16,1.6991851131059814e+16,11389668371588.467,1256172692859.4204,5597691145336.95,98568628343026.03,1875384083990461.2,3469380196827868.0
31.772481694156536,1.1991772928750676e+16,1.8469420286554016e+16,11845538869788.854,1489151130753.5898,6635880679344.832,116897018721342.58,2224126287815485.2,4116653480586584.5
35.949729863572195,1.243248787511101e+16,2.0057409931484612e+16,12280879517944.654,1751877122104.742,7806631154140.42,137581783328224.45,2617707403707388.0,4847793481543831.0
40.544702849929415,1.2852489466758446e+16,2.1768580605181532e+16,12695759400553.229,2047138922405.0588,9122367850107.156,160848228979955.34,3060413770443842.5,5670963872826191.0
45.59917313492236,1.325181385524073e+16,2.3616730760247144e+16,13090214227732.93,2377940794120.7495,10596478697692.42,186940152824064.1,3556883107653166.0,6595029010809612.0
51.1590904484146,1.3630500005939768e+16,2.5616826994427904e+16,13464282489211.33,2747517432485.311,12243378581085.057,216121301324904.94,4112132292029669.5,7629618216630821.0
57.27499949325607,1.398861795673925e+16,2.7785139514333212e+16,13818033368417.459,3159349963651.371,14078580652773.473,248677017889951.28,4731588751170885.0,8785199824548261.0
64.00249944258168,1.4326290919106642e+16,3.0139386975642172e+16,14151588574064.496,3617183726546.5835,16118775601412.863,284916108324220.8,5421126021476046.0,1.0073166378833222e+16
71.40274938683986,1.4643712499741336e+16,3.2698894116154404e+16,14465139351788.705,4125048041293.6313,18381919777736.64,325172955070532.56,6187104048460454.0,1.150593250571128e+16
79.54302432552385,1.4941159654108738e+16,3.548476492823666e+16,14758959279711.543,4687278097424.34,20887332773119.97,369809908612754.8,7036414758778096.0,1.3097047036586858e+16
88.49732675807624,1.5219001559368656e+16,3.852007351996941e+16,15033413033149.01,5308538967579.197,23655804477268.688,419219977779961.2,7976533308312809.0,1.4861320918029998e+16
98.34705943388387,1.5477704403990754e+16,4.1830074330513064e+16,15288961115798.13,5993851579752.958,26709710872460.99,473829831032128.94,9015575229137944.0,1.681497234278422e+16
109.18176537727226,1.571783209701924e+16,4.544243303094224e+16,15526160560328.725,6748620281221.013,30073136931125.105,534103109564120.1,1.0162359486653934e+16,1.8975790419932256e+16
121.09994191499949,1.5940043040473442e+16,4.938747927256822e+16,15745661740120.236,7578661417678.298,33772004049776.74,600544041650135.9,1.1426477243308866e+16,2.136331861992811e+16
134.20993610649944,1.6145083313822418e+16,5.369848243270833e+16,15948201636828.197,8490232145149.771,37834198534784.18,673701337140020.9,1.2818365927148764e+16,2.399905922228036e+16
148.6309297171494,1.6333776826109818e+16,5.841195162673713e+16,16134594112582.441,9490058496677.418,42289696784297.59,754172331962051.5,1.4349388032369222e+16,2.690670008690243e+16
164.49402268886433,1.6507013152124666e+16,6.356796146882724e+16,16305717894477.703,10585361540649.557,47170681985962.39,842607344879684.9,1.6031913934933312e+16,3.0112365275468504e+16
181.94342495775078,1.6665733858012118e+16,6.921050533402828e+16,16462503066927.998,11783880287368.084,52511646347001.54,939714202113107.6,1.7879407880131248e+16,3.364489136407052e+16
201.13776745352587,1.6810918132598656e+16,7.538787816734117e+16,16605916878205.85,13093889816032.494,58349472051716.54,1046262878960022.0,1.9906516175369452e+16,3.7536131701667064e+16
222.25154419887846,1.694356848215921e+16,8.215309117488021e+16,16736949609652.82,14524212895568.13,64723483255987.37,1163090200245752.0,2.2129156481809056e+16,4.1821291364904936e+16
245.47669861876633,1.706469713599083e+16,8.956432100005922e+16,16856601147030.553,16084223150373.541,71675460437628.19,1291104532265424.5,2.4564606923156064e+16,4.653929612391209e+16
271.024368480643,1.7175313668865504e+16,9.768539622359394e+16,16965868753913.822,17783837569451.22,79249607295763.12,1431290386861711.5,2.7231593500216708e+16,5.1733199354030936e+16
299.1268053287073,1.7276414194068284e+16,1.065863242255109e+17,17065736396517.121,19633495871758.656,87492459119378.83,1584712842517334.0,3.0150373998866644e+16,5.745063149867096e+16
330.03948586157804,1.7368972333458584e+16,1.1634386160988931e+17,17157165823875.176,21644123924117.523,96452720134343.95,1752521667053985.0,3.3342816192095496e+16,6.374429740739896e+16
364.0434344477359,1.7453932040168362e+16,1.270421315206763e+17,17241089478068.734,23827078068553.22,106181015824613.11,1935955001052247.2,3.6832467651141736e+16,7.0672527644942776e+16
401.44777789250946,1.7532202241703064e+16,1.3877329127278779e+17,17318405202653.516,26194066868117.086,116729544672004.28,2136342429876422.0,4.064461388574156e+16,7.829989069872382e+16
442.5925556817604,1.7604653188726664e+16,1.516382537904637e+17,17389972635973.941,28757046446456.594,128151612269492.58,2355107234738785.0,4.4806320820354776e+16,8.669787391529155e+16
487.8518112499365,1.7672114336988654e+16,1.6574746638855494e+17,17456611118921.791,31528085308151.59,140501029475580.94,2593767569213688.0,4.934645677518176e+16,9.594564198126835e+16
537.6369923749302,1.7735373553927656e+16,1.8122175045687402e+17,17519098911217.28,34519194326283.6,153831355379675.16,2853936256802093.5,5.42956881538831e+16,1.0613088284364421e+17
592.4006916124232,1.779517742360443e+16,1.9819320561937354e+17,17578173492626.35,37742117525345.54,168194965583054.12,3137318847548669.5,5.968644194419872e+16,1.173507521474206e+17
652.6407607736655,1.7852232419556944e+16,2.1680618194799024e+17,17634532721514.28,41208079439794.55,183641926971488.25,3445709507635264.5,6.555282691910915e+16,1.2971292856255674e+17
718.9048368510321,1.7907206720835082e+16,2.372183238293641e+17,17688836628736.934,44927485274711.0,200218662135186.8,3780984246078680.5,7.193050409947665e+16,1.4333679377893488e+17
791.7953205361354,1.7960732458259966e+16,2.5960168913175357e+17,17741709636508.355,48909570933758.87,217966390318897.66,4145090908557737.0,7.885649563125794e+16,1.583547524627884e+17
871.9748525897489,1.8013408192847664e+16,2.8414394742925565e+17,17793743006602.508,53162001323332.914,236919337760370.4,4540035292293567.0,8.636891978560442e+16,1.7491370907641955e+17
960.1723378487239,1.8065801444027748e+16,3.110496612528969e+17,17845497337741.94,57690417312599.16,257102719043593.56,4967862661323604.0,9.450663837566021e+16,1.9317672013819117e+17
1057.1895716335964,1.8118451100094692e+16,3.405416547116829e+17,17897504946654.97,62497934451390.32,278530503208649.2,5430633873547702.0,1.0330880159710032e+17,2.133248421983336e+17
1163.9085287969563,1.817186955618388e+16,3.7286247443941754e+17,17950271979980.88,67584600135410.64,301202994330641.9,5930395276708665.0,1.1281427427641029e+17,2.3555919746366838e+17
1281.299381676652,1.8226544435435812e+16,4.082759487777496e+17,18004280114445.227,72946820445248.56,325104276483093.94,6469141499640818.0,1.2306092693547205e+17,2.6010328053015846e+17
1410.4293198443174,1.8282939756841804e+16,4.4706885253403904e+17,18059987710464.465,78576773400504.16,350199597564440.1,7048770270342862.0,1.3408477519457339e+17,2.872055309536054e+17
1552.4722518287492,1.834149641895665e+16,4.8955268671831994e+17,18117830289960.484,84461831800164.69,376432795113025.5,7671028449878166.0,1.4591895214661398e+17,3.1714219724566835e+17
1708.7194770116243,1.840263187305117e+16,5.3606558556633965e+17,18178220213499.086,90584025968699.02,403723899094753.0,8337448600816462.0,1.5859250082447123e+17,3.5022051812272275e+17
1880.5914247127869,1.8466738863647304e+16,5.869743671298907e+17,18241545436184.08,96919584215443.3,431967080035126.1,9049275634921944.0,1.7212897820814966e+17,3.867822462134846e+17
2069.6505671840655,1.8534183120516772e+16,6.426767490272765e+17,18308167227802.066,103438596032954.8,461029143072302.8,9807383434696754.0,1.8654486890357277e+17,4.272075376621569e+17
2277.615623902472,1.860529989645886e+16,7.036037578820087e+17,18378416752820.72,110104849127014.17,490748795608857.25,1.0612181847371724e+16,2.0184781624336365e+17,4.719192278333246e+17
2506.3771862927197,1.8680389262420004e+16,7.7022236982462e+17,18452590422883.977,116875895116943.89,520936933028775.56,1.1463515138479932e+16,2.1803469168936867e+17,5.2138750831578394e+17
2758.0149049219917,1.8759710099316216e+16,8.430384304478141e+17,18530943961902.492,123703398735456.33,551378187032869.25,1.236055389231229e+16,2.3508954056804512e+17,5.761350133584097e+17
3034.816395414191,1.88434727683532e+16,9.225999159694052e+17,18613685165758.492,130533819982727.81,581833957355671.4,1.3301683476133452e+16,2.5298146367649795e+17,6.367423145859144e+17
3339.2980349556105,1.8931830503181476e+16,1.0095006131092429e+18,18700965399431.164,137309466343785.95,612047092794819.8,1.4284393544261412e+16,2.7166252015583107e+17,7.038538113814337e+17
3674.227838451172,1.9024869652348172e+16,1.1043843131392774e+18,18792869958440.6,143969931545664.56,641748295728504.5,1.5305174618492722e+16,2.910657666882479e+17,7.781839910829572e+17
4042.6506222962894,1.9122599013015164e+16,1.2079496352107766e+18,18889407532639.523,150453907782918.0,670664192790938.1,1.635942947195188e+16,3.1110358017441824e+17,8.60524019043282e+17
4447.915684525919,1.9224938638911544e+16,1.3209556144597002e+18,18990499150651.48,156701320419165.1,698526845497212.9,1.7441408735475702e+16,3.316664431261683e+17,9.517486052940783e+17
4893.707252978511,1.93317086758801e+16,1.4442282100717215e+18,19095967151566.633,162655690088306.16,725084278159747.2,1.854418163776225e+16,3.526223992254294e+17,1.052823084597248e+18
5384.077978276362,1.944261897098075e+16,1.578667905393713e+18,19205524920761.78,168266581138895.97,750111395385103.2,1.9659653798831056e+16,3.738174054462884e+17,1.1648106436761687e+18
5923.485776103998,1.955726040243644e+16,1.7252585836696978e+18,19318768325577.906,173491953915052.88,773420476381050.6,2.0778644155530396e+16,3.9507680986474656e+17,1.2888796380483658e+18
6516.834353714399,1.9675099064877556e+16,1.885077865974507e+18,19435169971476.402,178300209643856.25,794870304751792.2,2.1891031981685496e+16,4.1620816269770355e+17,1.4263109665458726e+18
7169.5177890858395,1.9795474583762956e+16,2.059309089205483e+18,19554077537018.414,182671709609495.38,814372960134072.8,2.2985982136402212e+16,4.3700551392802266e+17,1.5785055198100111e+18
7887.469567994424,1.991760388071911e+16,2.2492550787629798e+18,19674717493288.613,186599572663232.4,831897396879010.1,2.405225176920087e+16,4.572552572407767e+17,1.746991794185251e+18
8677.216524793868,2.0040591617344336e+16,2.456353831163298e+18,19796205420342.016,190089611323787.28,847469184664859.4,2.5078574566695536e+16,4.7674344388891366e+17,1.9334338660889388e+18
9545.938177273256,2.0163448259424476e+16,2.682196166750523e+18,19917563851132.56,193159355233573.78,861166179791813.4,2.6054109430985924e+16,4.952643152059963e+17,2.1396400507552425e+18
10501.531995000581,2.028511619089808e+16,2.9285453454479437e+18,20037748067024.426,195836222332274.9,873110393065218.6,2.696892992602805e+16,5.126296020337703e+17,2.3675727129337815e+18
11552.68519450064,2.040450356193299e+16,3.1973585664585165e+18,20155679533098.91,198155015737482.75,883456844767674.0,2.7814520206701344e+16,5.2867793797338515e+17,2.619359837176458e+18
12708.953713950705,2.0520524620182304e+16,3.4908102072620186e+18,20270285737577.652,200155025367305.97,892380648507298.0,2.8584234324770676e+16,5.432835666571418e+17,2.897309075700304e+18
13980.849085345777,2.0632144250223856e+16,3.811316612518406e+18,20380544188110.445,201877074472484.38,900063839625335.8,2.9273671020250136e+16,5.56363433582777e+17,3.2039250422068756e+18
15379.933993880357,2.073842349402856e+16,4.1615622349092444e+18,20485527377127.305,203360854989134.7,906683482190258.8,2.98809175206205e+16,5.678817814422495e+17,3.54193058258779e+18
16918.927393268394,2.0838562145329268e+16,4.544526970545683e+18,20584444856773.797,204642836697452.06,912402327480696.8,3.0406624961586876e+16,5.778515421292822e+17,3.914292611700456e+18
18611.820132595236,2.0931934302053548e+16,4.963514628044335e+18,20676678357784.098,205754924069928.44,917362802645286.5,3.085389493700849e+16,5.863321407696255e+17,4.324252863630579e+18
20474.00214585476,2.1018113165361816e+16,5.422182619450252e+18,20761806286096.34,206723896400342.7,921684492015861.0,3.1227979671288356e+16,5.934237643333802e+17,4.775363592085515e+18
22522.40236044024,2.10968824198611e+16,5.924573147697618e+18,20839614964283.758,207571534203208.72,925464681855559.1,3.1535823789351692e+16,5.99258631100198e+17,5.271527934557181e+18
24775.642596484264,2.116823309795796e+16,6.47514636321974e+18,20910095534143.652,208315238702149.44,928781109368399.5,3.1785498718398572e+16,6.039902339484279e+17,5.817044391011336e+18
27254.206856132692,2.12323466608296e+16,7.078816139401817e+18,20973427243992.945,208968910343310.16,931695873035913.4,3.198559629395913e+16,6.077818234763323e+17,6.416654734760073e+18
29980.627541745966,2.128956676948436e+16,7.74098924190186e+18,21029949563974.793,209543868218409.94,934259531089131.1,3.214465233102617e+16,6.107954740245315e+17,7.075594715427948e+18
32979.69029592056,2.134036352328586e+16,8.467608719390514e+18,21080126860688.504,210049650400981.6,936514673149126.8,3.2270662469469212e+16,6.131829128284269e+17,7.799647136118913e+18
36278.65932551262,2.138529455995107e+16,9.265202318455732e+18,21124509971567.934,210494611546537.3,938498590166664.2,3.237073335305992e+16,6.150789253229426e+17,8.595197247508072e+18
39907.525258063884,2.142496725882629e+16,1.0140936637454006e+19,21163698869082.688,210886304826015.03,940244983319239.6,3.245088673397639e+16,6.165976654252512e+17,9.469290823048946e+18
43899.277783870275,2.146000547258692e+16,1.110267761224835e+19,21198309798140.098,211231684255316.9,941784871496803.9,3.251600841631318e+16,6.178317125826506e+17,1.0429695670911232e+19
48290.20556225731,2.1491022980540572e+16,1.2159057806951207e+19,21228949053121.72,211537185605968.88,943146956235916.4,3.2569913701254916e+16,6.188533343143163e+17,1.1484967622864202e+19
53120.22611848305,2.1518604520658856e+16,1.3319550897019853e+19,21256194241226.35,211808743572065.84,944357701166178.2,3.2615489820993824e+16,6.197172026788125e+17,1.2644522177360423e+19
58433.24873033136,2.1543294098406052e+16,1.4594553699766227e+19,21280582733871.105,212051788905825.0,945441321061459.6,3.265487454456795e+16,6.204637901339265e+17,1.391871296729662e+19
64277.57360336451,2.1565589469905784e+16,1.5995476131518384e+19,21302606217134.016,212271251224719.6,946419795395534.6,3.2689636819819124e+16,6.211227983621181e+17,1.5318918113213723e+19
70706.33096370097,2.1585941310242532e+16,1.7534839539698532e+19,21322709870199.14,212471577706149.3,947312952234868.5,3.272093644500095e+16,6.21716185471351e+17,1.6857635369232112e+19
77777.96406007107,2.160475555065669e+16,1.9226383952021955e+19,21341294674048.305,212656767116246.6,948138620193033.9,3.274965155398951e+16,6.222605807053481e+17,1.8548586827530023e+19
85556.76046607818,2.16223975827999e+16,2.108518488312605e+19,21358721564447.24,212830418425610.16,948912845381500.1,3.2776472295682784e+16,6.227690574483822e+17,2.0406833853813813e+19
94113.436512686,2.163919735319295e+16,2.312778042541205e+19,21375316464276.926,212995779312732.06,949650107596737.4,3.28019651423141e+16,6.232523495721481e+17,2.2448902892140904e+19
103525.78016395462,2.1655454700963444e+16,2.537230941741139e+19,21391375556178.56,213155801107640.47,950363565362234.0,3.2826614834260304e+16,6.237196444360858e+17,2.469292279269804e+19
113879.3581803501,2.167144456478478e+16,2.7838661527582765e+19,21407170425994.51,213313190044030.6,951065284436439.2,3.2850850999341696e+16,6.24179086053694e+17,2.715877436032009e+19
125268.29399838512,2.168742187855268e+16,3.054864011595526e+19,21422952898743.477,213470455447632.94,951766452660920.6,3.287506515808414e+16,6.246380965861252e+17,2.9868252872471446e+19
137796.12339822366,2.1703626096015796e+16,3.3526138742747476e+19,21438959508073.32,213629954272354.62,952477578525027.1,3.2899621697326256e+16,6.25103591930876e+17,3.2845244356530975e+19
151576.73573804603,2.1720285349806604e+16,3.679733218332829e+19,21455415604573.95,213793932037807.34,953208673686084.4,3.29248677374777e+16,6.255821364447092e+17,3.6115916435775e+19
166735.40931185064,2.1737620278307964e+16,4.039088278273064e+19,21472539135975.44,213964560497325.72,953969420912461.0,3.2951137644519136e+16,6.260800764652458e+17,3.9708924541822026e+19
183409.95024303574,2.1755847579253956e+16,4.433816292575361e+19,21490544157413.37,214143972616218.75,954769330034210.8,3.297875981055305e+16,6.266036368139777e+17,4.365563427770301e+19
201751.94526733932,2.177518332360052e+16,4.867349433255666e+19,21509644104887.17,214334295190339.8,955617883373057.1,3.3008061675779076e+16,6.271590239363337e+17,4.7990360601798164e+19
221928.13979407327,2.179584609062076e+16,5.343440476579984e+19,21530054892123.6,214537679704972.62,956524673326728.6,3.303937447948261e+16,6.277525159497897e+17,5.275062443687203e+19
244121.9537734806,2.181805996567995e+16,5.866190258114138e+19,21551997871793.957,214756331842056.06,957499533926884.0,3.3073037802856496e+16,6.28390548735334e+17,5.797742712677384e+19
268535.1491508287,2.1842057443946456e+16,6.4400769337171616e+19,21575702703814.81,214992540061532.1,958552668268944.1,3.310940396920185e+16,6.290797993139206e+17,6.3715542955533615e+19
295389.6640659116,2.1868082280420216e+16,7.0699870396455125e+19,21601410170620.062,215248703654297.4,959694773585976.5,3.3148842362698416e+16,6.298272676666102e+17,7.0013829659257954e+19
324929.6304725028,2.1896392324230196e+16,7.761248308020103e+19,21629374976895.168,215527360640311.16,960937165632148.0,3.319174372324685e+16,6.306403580868435e+17,7.69255564921657e+19
