t(s),Total solute volume 1,Total retention volume 1,Total 1 volume 1,Total 2 volume 1,Total 3 volume 1,Total 4 volume 1,Total 5 volume 1,Total 6 volume 1
1.0,2383935323551076.5,2386029216451722.0,2093892900643.6287,0.0,0.0,0.0,0.0,0.0
2.1,3660663233692219.0,3669354497883538.0,3215287141289.421,1429636096.3520308,6176760050.918836,103563697841.83517,1912264157656.2268,3452542798377.6226
3.3100000000000005,4685694510365976.0,4704524630978072.0,4115607532461.1924,3841857166.2801886,16598787873.969683,278341759467.6437,5139254434563.226,9276476240551.104
4.641000000000001,5599494430930523.0,5632122577166483.0,4918229582927.335,7234278478.457951,31255780663.942844,524196631311.8232,9678449427356.846,17468780535239.686
6.105100000000002,6454292413133543.0,6504737830792223.0,5669028193963.11,11687890835.293901,50497660499.20918,847039718155.628,15639005087151.46,28228159108068.824
7.7156100000000025,7276171787439269.0,7348956408841166.0,6390913255451.368,17326664717.50857,74860043593.6995,1255909673578.0203,23187806839936.78,41857804924616.305
9.487171000000004,8080451090359211.0,8180720365181478.0,7097339567051.642,24308198861.10575,105023837462.07487,1762299770275.5344,32537055448399.695,58743248000222.29
11.435888100000005,8877126012272551.0,9010768873856936.0,7797086688846.5205,32822108778.605873,141808278556.74246,2380046926615.5156,43942219019642.1,79348878561955.44
13.579476910000007,9673225823605890.0,9847002384301968.0,8496328671764.705,43091353431.859665,186176664184.61823,3125435000742.5493,57703937422262.39,104221591583693.17
15.937424601000009,1.047397611237847e+16,1.069565785760674e+16,9199655330025.703,55375068369.958466,239248593062.93262,4017409068733.548,74171970009070.78,133998087158974.42
18.53116706110001,1.1283424398765636e+16,1.1561950157055012e+16,9910621739885.04,69972371966.22171,302316410058.77246,5077862537457.971,93750478643616.22,169414506586405.4
21.384283767210015,1.2104792990607468e+16,1.245044319600355e+16,10632058164657.89,87226891585.13675,376864761247.064,6331979340838.184,116904314286272.1,211317761951496.12
24.522712143931017,1.294067619100087e+16,1.3365267362108806e+16,11366243268807.008,107531825705.74174,464592464395.6143,7808618610557.029,144166071364676.34,260678113573796.2
27.97498335832412,1.3793136841844256e+16,1.4310237511068526e+16,12114988915362.383,131335331231.88678,567435784241.9845,9540727420607.088,176143643330098.25,318602538442719.25
31.772481694156536,1.4663729596938612e+16,1.5288897981551536e+16,12879660607454.486,159145947417.74817,687591865819.3716,11565761724915.5,213527914531505.2,386348309935805.56
35.949729863572195,1.5553467027326246e+16,1.6304509474452914e+16,13661147717522.314,191537669922.47247,827540656084.1167,13926088661532.836,257100098132012.8,465336034289595.25
40.544702849929415,1.6462741961026942e+16,1.7359989653454596e+16,14459795275778.81,229154201182.0271,990063266833.1033,16669337196981.91,307738117486908.3,557161224999996.2
45.59917313492236,1.7391221124537176e+16,1.8457820839112616e+16,15275310552108.912,272711856012.77878,1178254527669.266,19848660758362.24,366421368202587.94,663603408678665.8
51.1590904484146,1.8337728184434384e+16,1.959994126766575e+16,16106660327771.553,323000615920.98126,1395527540682.5518,23522876628339.32,434233219190600.75,786631798928042.4
57.27499949325607,1.9300136425548716e+16,2.078763884537331e+16,16951976631261.318,380882910205.5581,1645608414081.0508,27756453064188.67,512360724818370.4,928406773986502.0
64.00249944258168,2.0275291141326744e+16,2.2021466722961244e+16,17808488571410.92,447289849753.39105,1932519990619.1614,32619325864920.043,602091218117005.1,1091276739240770.0
71.40274938683986,2.125897892991813e+16,2.330119785563725e+16,18672495369380.09,523214832294.2626,2260554219943.506,38186540153765.73,704805713164990.6,1277770407978780.2
79.54302432552385,2.2245955954060524e+16,2.462583138688911e+16,19539391180533.547,609704653628.0553,2634233756090.266,44537728880243.57,821969333891905.5,1490585040466202.5
88.49732675807624,2.3230040862828388e+16,2.5993658154356228e+16,20403746710998.254,707848479040.5303,3058264310575.409,51756455630010.07,955119281546133.4,1732571694851067.8
98.34705943388387,2.420427164183511e+16,2.7402386970506756e+16,21259446984708.95,818765241155.6909,3537480207569.496,59929464951969.81,1105851138672769.2,2006719032613401.2
109.18176537727226,2.5161120052855692e+16,2.884932845761347e+16,22099879693141.652,943590229475.857,4076786447396.6855,69145898229435.71,1275804577111200.8,2316137673047126.0
121.09994191499949,2.609275298212558e+16,3.033162954281889e+16,22918164746463.395,1083461818156.2784,4681101367826.987,79496546860479.72,1466649786178866.8,2664047499721574.5
134.20993610649944,2.699132692805161e+16,3.1846549204682708e+16,23707412932079.832,1239509430543.4067,5355304649205.717,91073226408750.03,1680076151160063.2,3053770672050448.0
148.6309297171494,2.7849299743356212e+16,3.339176435623259e+16,24460999728258.28,1412843937286.1472,6104195834021.732,103968363751534.33,1917784861110531.0,3488733348514783.0
164.49402268886433,2.8659742302247224e+16,3.496569343182853e+16,25172839051826.934,1604551691622.1443,6932468560821.053,118274891406408.34,2181487160491860.5,3972479218378738.0
181.94342495775078,2.941663187488164e+16,3.6567824054640904e+16,25837640938705.574,1815693275969.3274,7844705152979.084,134086535923998.08,2472909822781388.0,4508697781686224.0
201.13776745352587,3.0115108816887504e+16,3.819903012162546e+16,26451137002764.824,2047307729067.0881,8845394885622.143,151498567582083.97,2793809063330220.5,5101269834208217.0
222.25154419887846,3.0751679094034028e+16,3.986186305573142e+16,27010258319836.867,2300422524649.167,9938977101334.305,170609045127791.47,3145993496626880.5,5754331761996980.0
245.47669861876633,3.1324347581461692e+16,4.156080230078398e+16,27513252508681.023,2576068897968.891,11129907430542.74,191520542935399.44,3531355896919277.5,6472359050630417.0
271.024368480643,3.1832671262572668e+16,4.330245181001017e+16,27959730457133.734,2875301324526.829,12422741950925.283,214342292582692.5,3951912511696433.5,7260267969425761.0
299.1268053287073,3.227772733224029e+16,4.5095672542599064e+16,28350638305887.69,3199219144428.1426,13822230616746.848,239192613199001.1,4409847626468443.0,8123532882624230.0
330.03948586157804,3.266199830166164e+16,4.6951645755542536e+16,28688156532059.87,3548987619595.165,15333408238008.74,266201453546547.9,4907560141885416.0,9068315306059272.0
364.0434344477359,3.2989183661902656e+16,4.8883867735047704e+16,28975534526836.004,3925855235331.4893,16961669233961.51,295512832429054.9,5447708260081592.0,1.0101599921638342e+16
401.44777789250946,3.3263954430976188e+16,5.09080828414163e+16,29216875005844.258,4331163912510.531,18712811758067.78,327286949698110.44,6033248114366151.0,1.123133249569936e+16
442.5925556817604,3.3491671935902936e+16,5.304216747914072e+16,29416887005949.207,4766349030829.829,20593037803111.05,361701751290001.94,6667462378276601.0,1.2466555139831264e+16
487.8518112499365,3.3678094662747864e+16,5.530598200737715e+16,29580628401778.02,5232926759286.184,22608898468742.04,398953767065577.94,7353975533409444.0,1.3817535590524552e+16
537.6369923749302,3.3829096572021924e+16,5.772121002798862e+16,29713258492680.914,5732467062686.228,24767177343845.96,439258093593384.56,8096753448789476.0,1.5295889010684676e+16
592.4006916124232,3.3950417070584604e+16,6.0311204610824184e+16,29819818394672.062,6266551768498.041,27074709343287.625,482847455549232.5,8900086048170292.0,1.6914692957013628e+16
652.6407607736655,3.4047457482688852e+16,6.310085890965914e+16,29905052274136.594,6836718083989.021,29538136683216.62,529970337657333.75,9768552906509980.0,1.8688598275761524e+16
718.9048368510321,3.4125132333322868e+16,6.6116514721424744e+16,29973276725020.848,7444388814667.052,32163607399151.375,580888223621605.9,1.0706972431643872e+16,2.0633940459897532e+16
791.7953205361354,3.418777712240161e+16,6.9385917540999144e+16,30028299763836.074,8090791166653.306,34956424539747.664,635872002171070.8,1.1720335721122566e+16,2.2768857179833628e+16
871.9748525897489,3.4239108493046224e+16,7.29382213696151e+16,30073385844148.465,8776866401021.636,37920655834140.06,695197600830696.5,1.2813726193898582e+16,2.5113418173760376e+16
960.1723378487239,3.4282228458759532e+16,7.680404170560112e+16,30111259569478.26,9503172798888.904,41058714454722.086,759140888009017.4,1.3992225730651856e+16,2.7689773481357576e+16
1057.1895716335964,3.4319661957265668e+16,8.101555136630971e+16,30144138678126.645,10269784495004.295,44370921924665.99,827971850250568.1,1.5260807439095562e+16,3.052232527460019e+16
1163.9085287969563,3.4353416384910892e+16,8.560661139936968e+16,30173786334267.27,11076188870549.504,47855064793810.74,901948013241208.8,1.6624214460334544e+16,3.363792750088447e+16
1281.299381676652,3.4385052600884804e+16,9.06129284270093e+16,30201573493363.926,11921185479749.568,51505957932986.56,981307042117186.4,1.808682362802337e+16,3.706611643907782e+16
1410.4293198443174,3.441575869186879e+16,9.607223020965395e+16,30228543692162.938,12802790000014.955,55315029522359.28,1066258437509359.8,1.965249244348368e+16,4.083937427357765e+16
1552.4722518287492,3.444642004917716e+16,1.0202445276521373e+17,30255474599820.7,13718147466268.096,59269946140259.4,1156974245261700.5,2.132438786053876e+16,4.499342704202981e+16
1708.7194770116243,3.447768160073601e+16,1.0851193474385592e+17,30282932678358.242,14663460036492.107,63354300620854.47,1253578724369419.5,2.310479586601794e+16,4.956757785939694e+16
1880.5914247127869,3.451000005661524e+16,1.1557961766462454e+17,30311319071681.992,15633935631179.928,67547390083224.625,1356136971895624.8,2.499491184202994e+16,5.460507614929765e+16
2069.6505671840655,3.454368560682766e+16,1.232752538688789e+17,30340906230171.863,16623764827136.963,71824116018920.52,1464642586487614.8,2.6994613223551532e+16,6.015352366493603e+16
2277.615623902472,3.457893361210543e+16,1.316496275186191e+17,30371865745763.555,17626134146733.25,76155041612663.89,1579004563602859.5,2.9102218019360056e+16,6.626531828204548e+16
2506.3771862927197,3.461584749589403e+16,1.4075679762033888e+17,30404288458762.508,18633284108397.062,80506642443322.9,1699033754645885.2,3.1314235327032904e+16,7.299813682775536e+16
2758.0149049219917,3.4654454368896104e+16,1.5065437588475622e+17,30438198181408.926,19636619813094.266,84841784160783.62,1824429386461741.0,3.3625116998486696e+16,8.041545852875646e+16
3034.816395414191,3.4694715000087284e+16,1.614038562393368e+17,30473560455759.895,20626880162155.52,89120453481029.1,1954766322236437.5,3.60270230128855e+16,8.858713101002878e+16
3339.2980349556105,3.4736529685591132e+16,1.7307101695110435e+17,30510287708520.297,21594368810322.11,93300755919583.38,2089483941349631.2,3.8509616732428696e+16,9.758998117929653e+16
3674.227838451172,3.477974143371836e+16,1.857264204632724e+17,30548242048572.215,22529245536220.562,97340174582066.31,2227877710407410.0,4.105990980083147e+16,1.0750847385614842e+17
4042.6506222962894,3.4824137730681964e+16,1.9944603994924704e+17,30587236817861.387,23421870918056.14,101197059297469.02,2369094690133350.5,4.3662179617750504e+16,1.1843542174364808e+17
4447.915684525919,3.486945200330576e+16,2.1431204484126458e+17,30627037876145.49,24263190341528.79,104832285738053.33,2512134344872555.0,4.629798456638583e+16,1.3047275141274443e+17
4893.707252978511,3.4915365759386564e+16,2.3041377964117034e+17,30667365480946.285,25045136055130.066,108210992577313.97,2655856057336719.0,4.894630282591635e+16,1.4373233150441706e+17
5384.077978276362,3.4961512255757536e+16,2.478489704728494e+17,30707897509334.78,25761019170316.938,111304275277531.11,2798994659112403.0,5.15838188959458e+16,1.5833687147007725e+17
5923.485776103998,3.500748240185954e+16,2.667251913150948e+17,30748274643237.484,26405878407887.664,114090693073479.06,2940185023819514.5,5.418537709510027e+16,1.7442090194819088e+17
6516.834353714399,3.5052833431884764e+16,2.871616159131869e+17,30788107986474.645,26976750383236.285,116557437030959.03,3077996296525259.0,5.6724612569085464e+16,1.921318513202905e+17
7169.5177890858395,3.5097100651489276e+16,3.09291071450904e+17,30826989382294.55,27472828556763.164,118701017130019.08,3210975627805228.5,5.917475734572349e+16,2.1163123699081702e+17
7887.469567994424,3.513981227235333e+16,3.332623960207053e+17,30864504443069.38,27895485457686.47,120527358637534.12,3337700350201456.5,6.1509601827083016e+16,2.330959942225299e+17
8677.216524793868,3.518050698850075e+16,3.5924308425490106e+17,30900247988171.49,28248145414242.504,122051252570426.19,3456836427644934.0,6.370457171387575e+16,2.5671996947890608e+17
9545.938177273256,3.5218753538923516e+16,3.874221855414351e+17,30933841226486.676,28536011689666.914,123295177054382.3,3567199826771074.0,6.5737858596457736e+16,2.8271560854931203e+17
10501.531995000581,3.5254171079615584e+16,4.180133994104232e+17,30964949649859.902,28765670360255.793,124287586043101.61,3667816361447281.5,6.7591522239841544e+16,3.113158715234648e+17
11552.68519450064,3.528644881378699e+16,4.5125829625090675e+17,30993300274975.33,28944610286370.707,125060835385991.73,3757974753356605.0,6.925246771465988e+16,3.4277640622315654e+17
12708.953713950705,3.531536307653389e+16,4.874295824264524e+17,31018696649398.434,29080710614637.277,125648968474257.36,3837267356875071.5,7.071319511988661e+16,3.773780084974182e+17
13980.849085345777,3.5340790017411348e+16,5.268343310013225e+17,31041029991108.094,29181751475001.387,126085601973489.47,3905613415202845.0,7.197222737771817e+16,4.154293918075507e+17
15379.933993880357,3.5362712233502164e+16,5.6981711562077696e+17,31060285014543.88,29254998456069.99,126402130223037.19,3963260963453101.5,7.303414460248458e+16,4.5727028040764365e+17
16918.927393268394,3.5381218201984868e+16,6.167630165863862e+17,31076539432211.047,29306897737480.125,126626407686511.7,4010765549542250.5,7.39091914153732e+16,5.032748315746297e+17
18611.820132595236,3.5396494114781356e+16,6.681005129562035e+17,31089956782775.43,29342899280314.992,126781984689193.58,4048946602328003.5,7.461247255447384e+16,5.538553848438689e+17
20474.00214585476,3.5408808635050268e+16,7.243043274835867e+17,31100773042176.008,29367404578324.023,126887881380518.39,4078825155845062.0,7.516280516509066e+16,6.094665324685989e+17
22522.40236044024,3.541849202757722e+16,7.858983445025462e+17,31109278293141.055,29383817777124.9,126958808389775.61,4101549228341356.0,7.558134384775597e+16,6.70609507494411e+17
24775.642596484264,3.542591188603541e+16,8.534587651588851e+17,31115795405621.496,29394667994989.633,127005695210588.94,4118314921166598.5,7.589012705687757e+16,7.378368951361946e+17
27254.206856132692,3.54314481264377e+16,9.276176910459628e+17,31120658072694.61,29401767845813.1,127036375089515.02,4130291823961457.5,7.611070302126306e+16,8.117576892732916e+17
29980.627541745966,3.5435469932603612e+16,1.0090673307418057e+18,31124190560988.71,29406377558977.547,127056294164604.16,4138560410275628.5,7.626297670996752e+16,8.930427368266734e+17
32979.69029592056,3.543831691264818e+16,1.0985650032753908e+18,31126691159790.613,29409353059786.137,127069151344382.55,4144066924046294.5,7.636437911962491e+16,9.824306351235072e+17
36278.65932551262,3.544028594389026e+16,1.1969390730477773e+18,31128420626484.223,29411266643717.64,127077419789647.45,4147598245743370.0,7.642940466962125e+16,1.0807341670814639e+18
39907.525258063884,3.544162421808017e+16,1.3050959016649426e+18,31129596077939.113,29412497689984.465,127082738941266.42,4149776043700312.0,7.646950385075485e+16,1.1888473727196974e+18
43899.277783870275,3.544252805750648e+16,1.4240278551208591e+18,31130389950657.12,29413296686183.45,127086191218941.33,4151066840589236.5,7.649326899638909e+16,1.30775336134852e+18
48290.20556225731,3.5443146343481224e+16,1.554822370382464e+18,31130933012126.79,29413828479578.387,127088488946275.64,4151802967172225.5,7.65068205245406e+16,1.4385329672968317e+18
53120.22611848305,3.5443587000462936e+16,1.6986720703719905e+18,31131320056048.035,29414200876162.074,127090097951050.98,4152208939790611.0,7.651429299549082e+16,1.5823743458173627e+18
58433.24873033136,3.544392493509577e+16,1.8568859219316244e+18,31131616875458.25,29414483574987.93,127091309659505.1,4152428453374066.5,7.651833242060398e+16,1.7405835987124408e+18
64277.57360336451,3.544421007347894e+16,2.0309014539126154e+18,31131867322137.81,29414720207368.184,127092332060152.97,4152548544252609.0,7.65205413696795e+16,1.914596515005615e+18
70706.33096370097,3.544447455365498e+16,2.2222980850059625e+18,31132099624015.816,29414939695789.375,127093280388116.34,4152619066771983.0,7.652183771317774e+16,2.1059915133526495e+18
77777.96406007107,3.5444738574613376e+16,2.4328116462355784e+18,31132331522547.207,29415158803112.11,127094227069492.25,4152667028432095.5,7.652271863610666e+16,2.316503880279037e+18
85556.76046607818,3.54450147848731e+16,2.664350214947907e+18,31132574127354.17,29415388026166.57,127095217457186.12,4152706296259562.5,7.6523439385175e+16,2.548041411301987e+18
94113.436512686,3.544531134827286e+16,2.919011403058687e+18,31132834609011.824,29415634140008.883,127096280823700.39,4152743668569945.5,7.652412507192934e+16,2.8027015782203423e+18
103525.78016395462,3.5445633952475588e+16,3.199101261897126e+18,31133117963186.92,29415901864751.504,127097437562888.67,4152782392969549.5,7.652483544525003e+16,3.082790363649034e+18
113879.3581803501,3.5445987053002332e+16,3.507154980708492e+18,31133428103314.06,29416194897969.426,127098703650598.95,4152823738832337.5,7.652559971505093e+16,3.390842921874959e+18
125268.29399838512,3.5446374607184212e+16,3.845959568553518e+18,31133768505251.094,29416516523796.72,127100093276354.77,4152869119001844.0,7.652643211092734e+16,3.7296462423380956e+18
137796.12339822366,3.544680047027905e+16,4.218578725541188e+18,31134142555201.16,29416869941658.234,127101620263683.19,4152918984904495.0,7.65273467872371e+16,4.1022640066660127e+18
151576.73573804603,3.5447268673273504e+16,4.628380108564682e+18,31134553793716.188,29417258496813.76,127103299066209.06,4152973808543379.0,7.652835240176957e+16,4.512063858569743e+18
166735.40931185064,3.5447783527948184e+16,5.079065235127103e+18,31135006007978.703,29417685767550.043,127105145144379.98,4153034094800738.5,7.652945821539632e+16,4.962747301452044e+18
183409.95024303574,3.5448349721178336e+16,5.574702266950437e+18,31135503314629.656,29418155643439.715,127107175303594.7,4153100392479978.5,7.653067429461144e+16,5.4583824817079e+18
201751.94526733932,3.5448972381124024e+16,6.119761942790817e+18,31136050217905.38,29418672380271.48,127109407931534.97,4153173302056094.5,7.65320116536922e+16,6.00344012132341e+18
221928.13979407327,3.5449657133483276e+16,6.719156950069431e+18,31136651659046.62,29419240646733.855,127111863199869.6,4153253482262535.0,7.653348237551918e+16,6.602832889322663e+18
244121.9537734806,3.5450410155930892e+16,7.378285047762862e+18,31137313064113.953,29419865569593.336,127114563259452.47,4153341656465698.0,7.653509972849664e+16,7.261958524480076e+18
268535.1491508287,3.5451238234571084e+16,8.103076277313618e+18,31138040393571.92,29420552780543.406,127117532442737.95,4153438619275045.5,7.653687828779734e+16,7.986747046046361e+18
295389.6640659116,3.5452148824352668e+16,8.900044623845108e+18,31138840195354.27,29421308466342.38,127120797480410.73,4153545243617400.0,7.653883406511907e+16,8.78371241476589e+18
324929.6304725028,3.5453150114579732e+16,9.776344516462475e+18,31139719662403.4,29422139423179.934,127124387736280.86,4153662488407738.5,7.654098464938107e+16,9.660009032963291e+18
357423.5935197531,3.545425110031009e+16,1.0739832583613581e+19,31140686695382.79,29423053115929.26,127128335463292.22,4153791406909509.5,7.654334936006763e+16,1.0623493499671005e+19
393166.95287172846,3.5455461660302824e+16,1.1799135107025768e+19,31141749971139.957,29424057742835.16,127132676083013.78,4153933155861631.5,7.65459494146337e+16,1.168279206431118e+19
