t(s),Total solute volume 1,Total retention volume 1,Total 1 volume 1,Total 2 volume 1,Total 3 volume 1,Total 4 volume 1,Total 5 volume 1,Total 6 volume 1
1.0,1802230404083058.8,1802576492555096.8,346088472037.3903,0.0,0.0,0.0,0.0,0.0
2.1,2769830850897278.5,2770364215502820.0,531900095697.3445,1897330.3696995117,5494444.760790139,50572011.133674145,627604580.0950216,778941480.5599221
3.3100000000000005,3548791597639617.5,3549477024129921.5,681486592493.086,5102690.374014597,14776788.770104202,136033731.12428206,1688192826.9713464,2095791763.5088267
4.641000000000001,4245301078027101.0,4246123745573484.0,815239690628.1301,9616712.687225493,27848864.190396156,256426080.43933204,3182272681.541787,3951691410.1558456
6.105100000000002,4898978037880013.0,4899930821964177.0,940767513361.4381,15551670.886409918,45035802.04789498,414772139.2971627,5147360910.534292,6393850284.250078
7.7156100000000025,5529742717689044.0,5530822452970592.0,1061895412599.0173,23078341.11529643,66832149.88163288,615663980.7166898,7640445505.928399,9493848964.571215
9.487171000000004,6149422213072410.0,6150628175803943.0,1180894585951.582,32414035.360946056,93867217.52110715,864947050.9073172,10734068757.670334,13342848523.110922
11.435888100000005,6765844836297836.0,6767178011874325.0,1299268330974.4531,43820887.70474485,126900114.2549668,1169678557.7056198,14515810664.053108,18051035289.447094
13.579476910000007,7384589963668764.0,7386052652200309.0,1418088074672.975,57607903.000534534,166825682.9212207,1538187412.9741442,19089047762.168846,23748788098.805355
15.937424601000009,8009813858946136.0,8011409441952181.0,1538151957860.35,74134622.33377007,214685109.25492138,1980177463.0129325,24574175023.51676,30587875989.94661
18.53116706110001,8644642470970899.0,8646375258033504.0,1660060267440.6428,93815317.57575001,271678076.5297204,2506848664.3191547,31110194303.409744,38744258816.19952
21.384283767210015,9291332639316194.0,9293207748623840.0,1784246391925.8147,117122890.77062826,339174052.6325818,3131010204.9635115,38856062280.97453,48419546294.28945
24.522712143931017,9951300651606142.0,9953323898629938.0,1910982305369.3877,144591726.20569092,418720547.7833202,3867168608.520199,47991766829.0255,59842470724.61028
27.97498335832412,1.0625078262784836e+16,1.0627256043306206e+16,2040370123099.8293,176818805.4078138,512046353.65247136,4731574156.1552105,58719015617.96786,73270943338.89915
31.772481694156536,1.1312239859363114e+16,1.1314579016810328e+16,2172328112625.6392,214462510.86052352,621058064.3601477,5742204452.011578,71260870224.40082,88990739356.06807
35.949729863572195,1.2011334726629002e+16,1.2013842405552824e+16,2306577688134.9644,258238725.54186854,747828790.5473988,6918683218.447743,85860841235.55588,107315643696.73035
40.544702849929415,1.2719849650554988e+16,1.2722533138683786e+16,2442636228462.739,308914036.9128878,894578476.6848357,8282123481.430768,102780917411.71533,128585366947.3906
45.59917313492236,1.3434218129513116e+16,1.3437084695582176e+16,2579818846055.397,367296066.9079425,1063645897.8987557,9854898304.981022,122298720771.61143,153162661958.09937
51.1590904484146,1.4149884044026486e+16,1.4152940780007206e+16,2717250613696.794,434221147.50930125,1257452969.952346,11660344767.604195,144703833521.16092,181429514615.28638
57.27499949325607,1.4861420830115944e+16,1.4864674507009616e+16,2853889449777.5044,510539758.2077273,1478462577.9452415,13722412477.768396,170293437052.21872,213782592051.63782
64.00249944258168,1.5562702615592862e+16,1.5566159561778146e+16,2988558982184.1675,597100358.8918843,1729131758.3970335,16065273721.812407,199367475147.9634,250628222079.70602
71.40274938683986,1.6247121197402568e+16,1.6250787208061002e+16,3119990215199.984,694732512.2276947,2011862823.8068721,18712919341.617844,232223640412.14285,292377288118.23615
79.54302432552385,1.690784131577144e+16,1.6911721601425238e+16,3246870550668.7754,804230496.8923076,2328955908.6912246,21688772786.868164,269152586478.4469,339440557436.7438
88.49732675807624,1.7538085353141028e+16,1.754218453485712e+16,3367898459698.45,926338937.0417478,2682567354.4033895,25015363726.746456,310433879439.5165,392225106904.5011
98.34705943388387,1.8131436522458428e+16,1.813575868063675e+16,3481841704935.915,1061742245.60077,3074679138.319521,28714110360.245182,356333298105.65826,451132643575.5085
109.18176537727226,1.8682146532774816e+16,1.8686695317013944e+16,3587596422919.7954,1211059800.660212,3507084919.2137423,32805265914.438076,407102327004.79517,516562078551.43494
121.09994191499949,1.9185430024421652e+16,1.9190208820100604e+16,3684243664263.5317,1374848626.6265655,3981397746.3883634,37308065152.13766,462979354253.23553,588908348909.0564
134.20993610649944,1.9637724627280188e+16,1.9642736796555756e+16,3771099335388.2363,1553614868.9435894,4499083371.584896,42241144824.24931,524195815839.2589,668580281279.006
148.6309297171494,2.003689365808156e+16,2.0042142836128424e+16,3847753121873.1357,1747834416.898033,5061519915.591584,47623205264.311104,590983793004.9025,756008572413.0168
164.49402268886433,2.0382349229374376e+16,2.0387839676716652e+16,3914092129814.4453,1957981777.60085,5670081497.181846,53473930389.19405,663587578638.8767,851665640166.4741
181.94342495775078,2.0675077914560984e+16,2.068081491165941e+16,3970305814362.876,2184564764.9740257,6326238688.073418,59815093418.18392,742277396402.3715,956087990783.7334
201.13776745352587,2.091755916428951e+16,2.0923549431635796e+16,4016870312941.932,2428161044.6360116,7031664342.310991,66671750946.69374,827364215830.8182,1069901241177.2687
222.25154419887846,2.111357783974139e+16,2.111982996335026e+16,4054512445376.168,2689451355.2463,7788329801.06972,74073391773.0102,919214005858.8785,1193845984705.6013
245.47669861876633,2.1267945037074644e+16,2.1274469877840196e+16,4084156102861.0854,2969243652.0658264,8598574809.315931,82054889128.95248,1018259549007.3126,1328802406096.6516
271.024368480643,2.1386153673185788e+16,2.139296473965162e+16,4106856108928.7817,3268482755.9329615,9465135457.950373,90657110668.85675,1125008009195.3823,1475811618796.526
299.1268053287073,2.1474004632946764e+16,2.1481118400825596e+16,4123726427234.82,3588241440.894748,10391118374.601444,99927072795.05675,1240042845897.8372,1636092173074.5063
330.03948586157804,2.153724346113285e+16,2.154467962909983e+16,4135870394278.2275,3929691113.8106437,11379915815.299162,109917581377.11678,1364019355666.3828,1811051028760.91
364.0434344477359,2.1581245339470956e+16,2.1589027018514556e+16,4144320224476.9023,4294052929.9368057,12435064101.163122,120686369507.3176,1497653972975.175,2002289359648.5886
401.44777789250946,2.16107775289123e+16,2.161893137061708e+16,4149991391152.5483,4682532767.129189,13560055311.632074,132294809325.7591,1641708286095.5054,2211604630121.7773
442.5925556817604,2.162985521243695e+16,2.1638411488585988e+16,4153654943536.556,5096245339.216747,14758117526.04874,144806322693.23508,1796969316124.0613,2440991203818.269
487.8518112499365,2.164169157292998e+16,2.1650684223516068e+16,4155927920056.011,5536133428.755687,16031980931.546345,158284632189.77744,1964227814524.582,2692642104978.2964
537.6369923749302,2.1648729256839556e+16,2.165819592522089e+16,4157279390407.5845,6002887656.890712,17383645486.298023,172791975717.62173,2144256108759.7783,2968954373259.4165
592.4006916124232,2.1652730886407468e+16,2.1662712958890868e+16,4158047836928.953,6496870667.694889,18814161366.51854,188387361388.88974,2337786447423.5796,3272539805647.8115
652.6407607736655,2.1654902485199076e+16,2.1665445148432544e+16,4158464856422.858,7018047668.792722,20323427820.44542,205124879272.5156,2545490050508.7783,3606241971753.024
718.9048368510321,2.165602544159688e+16,2.1667177765935452e+16,4158680501555.139,7565923614.39304,21910011257.889088,223052031093.85284,2767956382045.549,3973159489038.916
791.7953205361354,2.165657842317685e+16,2.1668393474945984e+16,4158786692486.681,8139486471.1812525,23570980954.966656,242208003268.52426,3005671719241.272,4376674886696.9614
871.9748525897489,2.1656838217280416e+16,2.166937319866446e+16,4158836581631.03,8737156189.72016,25301761281.26295,262621800252.1867,3258995988036.3335,4820488096627.005
960.1723378487239,2.1656955643372576e+16,2.1670272056153284e+16,4158859131362.465,9356740087.568417,27096002494.52333,284310172884.59186,3528137054586.8438,5308653679224.002
1057.1895716335964,2.165700800426294e+16,2.1671171832955216e+16,4158869186402.1396,9995396963.232557,28945476818.760925,307275312603.58777,3813122111342.2676,5845621208106.832
1163.9085287969563,2.1657032501171668e+16,2.167211441201828e+16,4158873890626.745,10649613948.576105,30840011411.38142,331502327407.1436,4113766354804.179,6436278648420.241
1281.299381676652,2.1657045909229964e+16,2.1673121463591348e+16,4158876465421.7393,11315201479.919992,32767473799.837772,356956561379.70404,4429639722088.346,7085998937186.357
1410.4293198443174,2.1657055297968576e+16,2.167420518146339e+16,4158878268373.0967,11987312563.719135,34713827672.44565,383580862363.28656,4760032984070.855,7800690239758.342
1552.4722518287492,2.16570634385988e+16,2.167537371062055e+16,4158879831645.979,12660492589.785704,36663277131.216385,411292941241.85614,5103924975469.803,8586850503679.093
1708.7194770116243,2.1657071328488224e+16,2.1676633700296172e+16,4158881346768.255,13328765228.580713,38598515439.83075,439983002226.22473,5459953187945.796,9451626990327.006
1880.5914247127869,2.1657079281606816e+16,2.1677991435031652e+16,4158882874032.643,13985758383.79639,40501089766.95322,469511856956.68695,5826390367155.001,10402881478538.266
2069.6505671840655,2.1657087364083604e+16,2.167945332699314e+16,4158884426138.1074,14624871710.969147,42351886299.843155,499709764830.8131,6201130121892.221,11449261838693.93
2277.615623902472,2.165709555508807e+16,2.1681026154083976e+16,4158885999084.5293,15239483850.3016,44131730365.63615,530376264014.60876,6581684827102.401,12600280691456.402
2506.3771862927197,2.165710380199424e+16,2.1682717217230788e+16,4158887582765.954,15823193346.74222,45822084107.00958,561281266251.7446,6965199209963.714,13866401900076.67
2758.0149049219917,2.1657112038352384e+16,2.1684534489642972e+16,4158889164421.786,16370082490.39806,47405810532.53919,592167676469.1238,7348482857886.441,15259135698761.082
3034.816395414191,2.165712019007652e+16,2.1686486787219796e+16,4158890729825.062,16874988456.275116,48867958705.22148,622755757304.8062,7728064380068.082,16791143328950.078
3339.2980349556105,2.165712817846539e+16,2.1688583971521612e+16,4158892263862.5176,17333761816.418083,50196512363.17293,652749381690.7416,8100268998794.427,18476352137618.6
3674.227838451172,2.165713592271801e+16,2.1690837189256948e+16,4158893751017.663,17743489568.528538,51383035784.49694,681844198358.6179,8461319879079.381,20330082185138.22
4042.6506222962894,2.165714334265716e+16,2.1693259148243756e+16,4158895175893.789,18102659157.87656,52423148775.95857,709737574658.7103,8807461513783.12,22369185514295.05
4447.915684525919,2.1657150361765468e+16,2.169586442666598e+16,4158896523797.003,18411242327.81895,53316769495.004906,736139983866.086,9135101034008.129,24612199346997.47
4893.707252978511,2.1657156910431536e+16,2.1698669809447364e+16,4158897781359.595,18670683437.947124,54068080621.49277,760787284145.6263,9440960584454.928,27079514601786.65
5384.077978276362,2.1657162929211976e+16,2.170169464270186e+16,4158898937166.4453,18883785987.01911,54685200742.564896,783453117225.8911,9722231184241.225,29793561264501.086
5923.485776103998,2.16571683718584e+16,2.1704961194881812e+16,4158899982336.3296,19054502591.44332,55179576156.15157,803960469606.6011,9976716195147.117,32779012297567.25
6516.834353714399,2.1657173207830076e+16,2.170849501193202e+16,4158900911004.403,19187645982.079945,55565143952.66557,822191327327.533,10202951131915.014,36063007941754.336
7169.5177890858395,2.165717742401388e+16,2.1712325254011664e+16,4158901720652.5024,19288549538.13489,55857348961.786095,838093357166.8967,10400286572078.598,39675402449374.695
7887.469567994424,2.165718102541348e+16,2.1716485003598164e+16,4158902412241.5063,19362713208.088673,56072118381.457985,851682694749.1656,10568922754588.902,43649035491529.25
8677.216524793868,2.165718403465108e+16,2.1721011539215388e+16,4158902990115.6196,19415472565.441467,56224903402.21408,863042226968.2268,10709888265301.781,48020030705977.36
9545.938177273256,2.1657186490243092e+16,2.1725946575427692e+16,4158903461671.304,19451724435.63152,56329884654.610695,872315207428.685,10824960807749.719,52828124098642.4
10501.531995000581,2.165718844375547e+16,2.173133647744535e+16,4158903836810.9165,19475732632.41048,56399409643.9748,879694589985.805,10916534837876.94,58117025282953.336
11552.68519450064,2.1657189956088776e+16,2.173723246658196e+16,4158904127229.4185,19491023860.502205,56443691295.97426,885409025083.915,10987447785987.37,63934814839694.36
12708.953713950705,2.1657191093267372e+16,2.1743690839507204e+16,4158904345605.7007,19500369695.131992,56470755770.69079,889706933967.2787,11040782426235.498,70334381408536.66
13980.849085345777,2.1657191922177388e+16,2.1750773228378284e+16,4158904504784.088,19505838768.170124,56486593586.91364,892840355493.4843,11079666424353.996,77373902483948.45
15379.933993880357,2.1657192506703144e+16,2.175854692951415e+16,4158904617032.5645,19508896141.021687,56495447393.89215,895050275935.0912,11107090288572.674,85117373285934.19
16918.927393268394,2.16571929046397e+16,2.176708532503523e+16,4158904693449.679,19510525204.282864,56500164978.161,896554883498.4866,11125761614778.857,93635188513576.3
18611.820132595236,2.1657193165625036e+16,2.177646841544814e+16,4158904743567.579,19511350670.871765,56502555437.12242,897541681936.9525,11138007220992.875,103004782270465.94
20474.00214585476,2.165719333016792e+16,2.1786783472949744e+16,4158904775165.302,19511747548.189842,56503704749.676704,898163757075.3627,11145726817229.836,113311331980094.08
22522.40236044024,2.165719342968027e+16,2.1798125817159616e+16,4158904794274.9976,19511928200.0405,56504227897.43457,898539855528.0347,11150393982576.78,124648532690841.9
24775.642596484264,2.1657193487298104e+16,2.1810599708670092e+16,4158904805339.5454,19512005879.80124,56504228047.76083,898757440225.7833,11153094082795.703,137119448809714.55
27254.206856132692,2.165719351916922e+16,2.1824319354317576e+16,4158904811459.861,19512005908.515476,56504228130.91338,898877622381.8069,11154585473441.592,150837451006984.12
29980.627541745966,2.1657193535997556e+16,2.1839410014881076e+16,4158904814691.468,19512005923.676895,56504228174.81887,898940856371.515,11155370170260.445,165927246808145.9
32979.69029592056,2.165719354448197e+16,2.1856009214817852e+16,4158904816320.7607,19512005931.320908,56504228196.95485,898972477406.5104,11155762568695.896,182526014239373.12
36278.65932551262,2.1657193548584572e+16,2.1874268054582572e+16,4158904817108.601,19512005935.017178,56504228207.65881,898987472138.9033,11155948644446.2,200784648830142.56
39907.525258063884,2.165719355060392e+16,2.1894352626566868e+16,4158904817496.3804,19512005936.836494,56504228212.927376,898987472222.7242,11156032132155.775,220869135306897.28
43899.277783870275,2.165719355189335e+16,2.1916445548993212e+16,4158904817743.993,19512005937.99818,56504228216.291435,898987472276.2448,11156032132819.916,242962056442855.9
48290.20556225731,2.165719355209493e+16,2.1940747745513892e+16,4158904817782.702,19512005938.179836,56504228216.817345,898987472284.6133,11156032132923.764,267264252761813.06
53120.22611848305,2.1657193552299144e+16,2.196748014119789e+16,4158904817821.9194,19512005938.36378,56504228217.350136,898987472293.0912,11156032133028.94,293996648241422.6
58433.24873033136,2.1657193552523492e+16,2.199688575168006e+16,4158904817865.0054,19512005938.56593,56504228217.935616,898987472302.4027,11156032133144.5,323402258499043.6
64277.57360336451,2.165719355277033e+16,2.202923189323881e+16,4158904817912.3994,19512005938.7883,56504228218.57944,898987472312.649,11156032133271.633,355748399810819.75
70706.33096370097,2.165719355304182e+16,2.2064812612687856e+16,4158904817964.544,19512005939.0329,56504228219.28787,898987472323.9197,11156032133411.438,391329118988165.2
77777.96406007107,2.1657193553340456e+16,2.2103951360200516e+16,4158904818021.8887,19512005939.301956,56504228220.067024,898987472336.3156,11156032133565.262,430467866201907.25
85556.76046607818,2.1657193553668976e+16,2.214700392936801e+16,4158904818084.971,19512005939.59793,56504228220.92417,898987472349.9501,11156032133734.463,473520435040672.94
94113.436512686,2.1657193554030324e+16,2.2194361691205756e+16,4158904818154.367,19512005939.9235,56504228221.866974,898987472364.9495,11156032133920.59,520878196516815.0
103525.78016395462,2.1657193554427828e+16,2.2246455151489132e+16,4158904818230.7017,19512005940.281643,56504228222.90388,898987472381.45,11156032134125.31,572971656402425.4
113879.3581803501,2.1657193554865056e+16,2.230375786373788e+16,4158904818314.6616,19512005940.675537,56504228224.044655,898987472399.597,11156032134350.518,630274368213591.5
125268.29399838512,2.1657193555346012e+16,2.236679073339547e+16,4158904818407.031,19512005941.10889,56504228225.29946,898987472419.564,11156032134598.223,693307237389847.8
137796.12339822366,2.1657193555875076e+16,2.2436126752301696e+16,4158904818508.6265,19512005941.585526,56504228226.67991,898987472441.5239,11156032134870.72,762643255766604.5
151576.73573804603,2.165719355645704e+16,2.251239620646118e+16,4158904818620.3755,19512005942.10982,56504228228.19825,898987472465.6805,11156032135170.436,838912709343683.5
166735.40931185064,2.1657193557097172e+16,2.2596292404405884e+16,4158904818743.3076,19512005942.6866,56504228229.86842,898987472492.2513,11156032135500.154,922808906647756.8
183409.95024303574,2.165719355780139e+16,2.268857797817257e+16,4158904818878.5273,19512005943.321033,56504228231.70559,898987472521.4832,11156032135862.865,1015094479709719.8
201751.94526733932,2.1657193558575948e+16,2.279009181411e+16,4158904819027.281,19512005944.018875,56504228233.72661,898987472553.6339,11156032136261.785,1116608314871992.6
221928.13979407327,2.165719355942798e+16,2.2901756676443172e+16,4158904819190.8955,19512005944.786552,56504228235.9495,898987472589.0022,11156032136700.633,1228273176352508.8
244121.9537734806,2.165719356036523e+16,2.3024587592801656e+16,4158904819370.8784,19512005945.63096,56504228238.3949,898987472627.9055,11156032137183.35,1351104091773039.5
268535.1491508287,2.165719356139622e+16,2.3159701077826284e+16,4158904819568.8564,19512005946.55979,56504228241.08474,898987472670.7003,11156032137714.35,1486217575765921.0
295389.6640659116,2.1657193562530268e+16,2.3308325278562744e+16,4158904819786.6333,19512005947.581505,56504228244.04346,898987472717.7743,11156032138298.434,1634841775367443.8
324929.6304725028,2.165719356377775e+16,2.34718111336997e+16,4158904820026.194,19512005948.705402,56504228247.298065,898987472769.5537,11156032138940.951,1798327629256030.2
357423.5935197531,2.165719356514994e+16,2.3651644647890676e+16,4158904820289.6987,19512005949.941677,56504228250.87813,898987472826.5134,11156032139647.693,1978161142073798.0
393166.95287172846,2.1657193566659344e+16,2.38494603924909e+16,4158904820579.5566,19512005951.301586,56504228254.816124,898987472889.1654,11156032140425.113,2175976885163496.8
432484.6481589014,2.1657193568319656e+16,2.4067056355137704e+16,4158904820898.3916,19512005952.79746,56504228259.147964,898987472958.0858,11156032141280.24,2393572846148694.5
475734.11297479155,2.165719357014602e+16,2.4306410272800144e+16,4158904821249.1167,19512005954.44287,56504228263.91314,898987473033.895,11156032142220.896,2632926761983381.0
523308.52427227073,2.165719357215497e+16,2.4569697596332388e+16,4158904821634.9097,19512005956.252888,56504228269.15451,898987473117.2852,11156032143255.623,2896214083505183.5
575640.3766994978,2.16571935743649e+16,2.4859311249303296e+16,4158904822059.276,19512005958.243835,56504228274.92009,898987473209.0146,11156032144393.795,3185827734264510.5
