t(s),Total solute volume 1,Total retention volume 1,Total 1 volume 1,Total 2 volume 1,Total 3 volume 1,Total 4 volume 1,Total 5 volume 1,Total 6 volume 1
1.0,2157760910393501.0,2158863022669161.0,1102112275666.4915,0.0,0.0,0.0,0.0,0.0
2.1,3316237410778927.0,3317931234179016.0,1693823400081.1077,0.0,0.0,0.0,0.0,0.0
3.3100000000000005,4248864269343395.0,4251034447410327.5,2170178066929.6584,0.0,0.0,0.0,0.0,0.0
4.641000000000001,5082776116196962.0,5085372228598734.0,2596112401777.2373,0.0,0.0,0.0,0.0,0.0
6.105100000000002,5865408432866485.0,5868404287731310.0,2995854864827.887,0.0,0.0,0.0,0.0,0.0
7.7156100000000025,6620616478994808.0,6623998068921033.0,3381589926227.39,0.0,0.0,0.0,0.0,0.0
9.487171000000004,7362578045999934.0,7366338605128403.0,3760559128462.7354,0.0,0.0,0.0,0.0,0.0
11.435888100000005,8100714146129257.0,8104851720539262.0,4137574410013.9277,0.0,0.0,0.0,0.0,0.0
13.579476910000007,8841820152307767.0,8846336258928182.0,4516106620396.427,0.0,0.0,0.0,0.0,0.0
15.937424601000009,9591114222392228.0,9596013043412458.0,4898821020215.698,0.0,0.0,0.0,0.0,0.0
18.53116706110001,1.0352792422171074e+16,1.0358080282990462e+16,5287860819405.625,0.0,0.0,0.0,0.0,0.0
21.384283767210015,1.1130325085961672e+16,1.1136010084509936e+16,5684998548276.768,0.0,0.0,0.0,0.0,0.0
24.522712143931017,1.1926596821425614e+16,1.1932688528992884e+16,6091707567270.9795,0.0,0.0,0.0,0.0,0.0
27.97498335832412,1.2743939110325374e+16,1.2750448289043698e+16,6509178718337.669,0.0,0.0,0.0,0.0,0.0
31.772481694156536,1.3584083547023792e+16,1.3591021843464526e+16,6938296440752.01,0.0,0.0,0.0,0.0,0.0
35.949729863572195,1.4448057707142624e+16,1.4455437292726974e+16,7379585584364.432,0.0,0.0,0.0,0.0,0.0
40.544702849929415,1.533604596820707e+16,1.5343879108528584e+16,7833140321519.128,0.0,0.0,0.0,0.0,0.0
45.59917313492236,1.6247239378424598e+16,1.6255537925889762e+16,8298547465140.188,0.0,0.0,0.0,0.0,0.0
51.1590904484146,1.7179699002238344e+16,1.718847381890866e+16,8774816670310.756,0.0,0.0,0.0,0.0,0.0
57.27499949325607,1.8130254866497584e+16,1.813951519531704e+16,9260328819456.803,0.0,0.0,0.0,0.0,0.0
64.00249944258168,1.9094457897119156e+16,1.9104210708592452e+16,9752811473296.793,0.0,0.0,0.0,0.0,0.0
71.40274938683986,2.0066596177462028e+16,2.00768455246372e+16,10249347175161.807,0.0,0.0,0.0,0.0,0.0
79.54302432552385,2.1039780830171724e+16,2.1050527247488348e+16,10746417316641.867,0.0,0.0,0.0,0.0,0.0
88.49732675807624,2.2006101843748784e+16,2.2017341825477428e+16,11239981728639.473,0.0,0.0,0.0,0.0,0.0
98.34705943388387,2.2956850575314276e+16,2.2968576167642656e+16,11725592328370.367,0.0,0.0,0.0,0.0,0.0
109.18176537727226,2.388280309762007e+16,2.389500163546363e+16,12198537843539.81,0.0,0.0,0.0,0.0,0.0
121.09994191499949,2.4774556202074556e+16,2.4787210217506056e+16,12654015431415.37,0.0,0.0,0.0,0.0,0.0
134.20993610649944,2.562290485405127e+16,2.5635992177521584e+16,13087323470301.498,0.0,0.0,0.0,0.0,0.0
148.6309297171494,2.6419245713682656e+16,2.643273978134702e+16,13494067664355.477,0.0,0.0,0.0,0.0,0.0
164.49402268886433,2.7155986100880776e+16,2.716985647080988e+16,13870369929100.174,0.0,0.0,0.0,0.0,0.0
181.94342495775078,2.782693229494675e+16,2.784114536166846e+16,14213066721716.318,0.0,0.0,0.0,0.0,0.0
201.13776745352587,2.8427626646810624e+16,2.844214652803718e+16,14519881226531.502,0.0,0.0,0.0,0.0,0.0
222.25154419887846,2.89556012089988e+16,2.8970390761899412e+16,14789552900570.021,0.0,0.0,0.0,0.0,0.0
245.47669861876633,2.9410517873366024e+16,2.9425539782417064e+16,15021909051094.674,0.0,0.0,0.0,0.0,0.0
271.024368480643,2.9794172231481396e+16,2.9809390098289664e+16,15217866808270.576,0.0,0.0,0.0,0.0,0.0
299.1268053287073,3.0110350539492156e+16,3.0125729899555436e+16,15379360063311.49,0.0,0.0,0.0,0.0,0.0
330.03948586157804,3.036454517855907e+16,3.038005437270119e+16,15509194142168.176,0.0,0.0,0.0,0.0,0.0
364.0434344477359,3.0563551636191092e+16,3.057916247614317e+16,15610839952083.174,0.0,0.0,0.0,0.0,0.0
401.44777789250946,3.0714986233004948e+16,3.0730674420658976e+16,15688187654051.156,0.0,0.0,0.0,0.0,0.0
442.5925556817604,3.082677526094396e+16,3.0842520546675776e+16,15745285731836.99,0.0,0.0,0.0,0.0,0.0
487.8518112499365,3.0906670113842416e+16,3.0922456207179404e+16,15786093337011.791,0.0,0.0,0.0,0.0,0.0
537.6369923749302,3.096183800316445e+16,3.0977652274404804e+16,15814271240350.88,0.0,0.0,0.0,0.0,0.0
592.4006916124232,3.099856456242376e+16,3.101439759235595e+16,15833029932199.512,0.0,0.0,0.0,0.0,0.0
652.6407607736655,3.1022085688636348e+16,3.1037930732369136e+16,15845043732761.762,0.0,0.0,0.0,0.0,0.0
718.9048368510321,3.1036545435540476e+16,3.1052397864825824e+16,15852429285385.906,0.0,0.0,0.0,0.0,0.0
791.7953205361354,3.1036545435540476e+16,3.1052397864825824e+16,15852429285385.906,0.0,0.0,0.0,0.0,0.0
871.9748525897489,3.1036545435540476e+16,3.1052397864825824e+16,15852429285385.906,0.0,0.0,0.0,0.0,0.0
960.1723378487239,3.1036545435540476e+16,3.1052397864825824e+16,15852429285385.906,0.0,0.0,0.0,0.0,0.0
1057.1895716335964,3.1036545435540476e+16,3.1052397864825824e+16,15852429285385.906,0.0,0.0,0.0,0.0,0.0
1163.9085287969563,3.1036545435540476e+16,3.1052397864825824e+16,15852429285385.906,0.0,0.0,0.0,0.0,0.0
1281.299381676652,3.1036545435540476e+16,3.1052397864825824e+16,15852429285385.906,0.0,0.0,0.0,0.0,0.0
1410.4293198443174,3.1036545435540476e+16,3.1052397864825824e+16,15852429285385.906,0.0,0.0,0.0,0.0,0.0
1552.4722518287492,3.1036545435540476e+16,3.1052397864825824e+16,15852429285385.906,0.0,0.0,0.0,0.0,0.0
1708.7194770116243,3.1036545435540476e+16,3.1052397864825824e+16,15852429285385.906,0.0,0.0,0.0,0.0,0.0
1880.5914247127869,3.1036545435540476e+16,3.1052397864825824e+16,15852429285385.906,0.0,0.0,0.0,0.0,0.0
2069.6505671840655,3.1036545435540476e+16,3.1052397864825824e+16,15852429285385.906,0.0,0.0,0.0,0.0,0.0
2277.615623902472,3.1036545435540476e+16,3.1052397864825824e+16,15852429285385.906,0.0,0.0,0.0,0.0,0.0
2506.3771862927197,3.1036545435540476e+16,3.1052397864825824e+16,15852429285385.906,0.0,0.0,0.0,0.0,0.0
2758.0149049219917,3.1036545435540476e+16,3.1052397864825824e+16,15852429285385.906,0.0,0.0,0.0,0.0,0.0
3034.816395414191,3.1036545435540476e+16,3.1052397864825824e+16,15852429285385.906,0.0,0.0,0.0,0.0,0.0
3339.2980349556105,3.1036545435540476e+16,3.1052397864825824e+16,15852429285385.906,0.0,0.0,0.0,0.0,0.0
3674.227838451172,3.1036545435540476e+16,3.1052397864825824e+16,15852429285385.906,0.0,0.0,0.0,0.0,0.0
4042.6506222962894,3.1036545435540476e+16,3.1052397864825824e+16,15852429285385.906,0.0,0.0,0.0,0.0,0.0
4447.915684525919,3.1036545435540476e+16,3.1052397864825824e+16,15852429285385.906,0.0,0.0,0.0,0.0,0.0
4893.707252978511,3.1036545435540476e+16,3.1052397864825824e+16,15852429285385.906,0.0,0.0,0.0,0.0,0.0
5384.077978276362,3.1036545435540476e+16,3.1052397864825824e+16,15852429285385.906,0.0,0.0,0.0,0.0,0.0
5923.485776103998,3.1036545435540476e+16,3.1052397864825824e+16,15852429285385.906,0.0,0.0,0.0,0.0,0.0
6516.834353714399,3.1036545435540476e+16,3.1052397864825824e+16,15852429285385.906,0.0,0.0,0.0,0.0,0.0
7169.5177890858395,3.1036545435540476e+16,3.1052397864825824e+16,15852429285385.906,0.0,0.0,0.0,0.0,0.0
7887.469567994424,3.1036545435540476e+16,3.1052397864825824e+16,15852429285385.906,0.0,0.0,0.0,0.0,0.0
8677.216524793868,3.1036545435540476e+16,3.1052397864825824e+16,15852429285385.906,0.0,0.0,0.0,0.0,0.0
9545.938177273256,3.1036545435540476e+16,3.1052397864825824e+16,15852429285385.906,0.0,0.0,0.0,0.0,0.0
10501.531995000581,3.1036545435540476e+16,3.1052397864825824e+16,15852429285385.906,0.0,0.0,0.0,0.0,0.0
11552.68519450064,3.1036545435540476e+16,3.1052397864825824e+16,15852429285385.906,0.0,0.0,0.0,0.0,0.0
12708.953713950705,3.1036545435540476e+16,3.1052397864825824e+16,15852429285385.906,0.0,0.0,0.0,0.0,0.0
13980.849085345777,3.1036545435540476e+16,3.1052397864825824e+16,15852429285385.906,0.0,0.0,0.0,0.0,0.0
15379.933993880357,3.1036545435540476e+16,3.1052397864825824e+16,15852429285385.906,0.0,0.0,0.0,0.0,0.0
16918.927393268394,3.1036545435540476e+16,3.1052397864825824e+16,15852429285385.906,0.0,0.0,0.0,0.0,0.0
18611.820132595236,3.1036545435540476e+16,3.1052397864825824e+16,15852429285385.906,0.0,0.0,0.0,0.0,0.0
20474.00214585476,3.1036545435540476e+16,3.1052397864825824e+16,15852429285385.906,0.0,0.0,0.0,0.0,0.0
22522.40236044024,3.1036545435540476e+16,3.1052397864825824e+16,15852429285385.906,0.0,0.0,0.0,0.0,0.0
24775.642596484264,3.1036545435540476e+16,3.1052397864825824e+16,15852429285385.906,0.0,0.0,0.0,0.0,0.0
27254.206856132692,3.1036545435540476e+16,3.1052397864825824e+16,15852429285385.906,0.0,0.0,0.0,0.0,0.0
29980.627541745966,3.1036545435540476e+16,3.1052397864825824e+16,15852429285385.906,0.0,0.0,0.0,0.0,0.0
32979.69029592056,3.1036545435540476e+16,3.1052397864825824e+16,15852429285385.906,0.0,0.0,0.0,0.0,0.0
36278.65932551262,3.1036545435540476e+16,3.1052397864825824e+16,15852429285385.906,0.0,0.0,0.0,0.0,0.0
39907.525258063884,3.1036545435540476e+16,3.1052397864825824e+16,15852429285385.906,0.0,0.0,0.0,0.0,0.0
43899.277783870275,3.1036545435540476e+16,3.1052397864825824e+16,15852429285385.906,0.0,0.0,0.0,0.0,0.0
48290.20556225731,3.1036545435540476e+16,3.1052397864825824e+16,15852429285385.906,0.0,0.0,0.0,0.0,0.0
53120.22611848305,3.1036545435540476e+16,3.1052397864825824e+16,15852429285385.906,0.0,0.0,0.0,0.0,0.0
58433.24873033136,3.1036545435540476e+16,3.1052397864825824e+16,15852429285385.906,0.0,0.0,0.0,0.0,0.0
64277.57360336451,3.1036545435540476e+16,3.1052397864825824e+16,15852429285385.906,0.0,0.0,0.0,0.0,0.0
70706.33096370097,3.1036545435540476e+16,3.1052397864825824e+16,15852429285385.906,0.0,0.0,0.0,0.0,0.0
77777.96406007107,3.1036545435540476e+16,3.1052397864825824e+16,15852429285385.906,0.0,0.0,0.0,0.0,0.0
85556.76046607818,3.1036545435540476e+16,3.1052397864825824e+16,15852429285385.906,0.0,0.0,0.0,0.0,0.0
94113.436512686,3.1036545435540476e+16,3.1052397864825824e+16,15852429285385.906,0.0,0.0,0.0,0.0,0.0
103525.78016395462,3.1036545435540476e+16,3.1052397864825824e+16,15852429285385.906,0.0,0.0,0.0,0.0,0.0
113879.3581803501,3.1036545435540476e+16,3.1052397864825824e+16,15852429285385.906,0.0,0.0,0.0,0.0,0.0
125268.29399838512,3.1036545435540476e+16,3.1052397864825824e+16,15852429285385.906,0.0,0.0,0.0,0.0,0.0
137796.12339822366,3.1036545435540476e+16,3.1052397864825824e+16,15852429285385.906,0.0,0.0,0.0,0.0,0.0
151576.73573804603,3.1036545435540476e+16,3.1052397864825824e+16,15852429285385.906,0.0,0.0,0.0,0.0,0.0
166735.40931185064,3.1036545435540476e+16,3.1052397864825824e+16,15852429285385.906,0.0,0.0,0.0,0.0,0.0
183409.95024303574,3.1036545435540476e+16,3.1052397864825824e+16,15852429285385.906,0.0,0.0,0.0,0.0,0.0
201751.94526733932,3.1036545435540476e+16,3.1052397864825824e+16,15852429285385.906,0.0,0.0,0.0,0.0,0.0
221928.13979407327,3.1036545435540476e+16,3.1052397864825824e+16,15852429285385.906,0.0,0.0,0.0,0.0,0.0
244121.9537734806,3.1036545435540476e+16,3.1052397864825824e+16,15852429285385.906,0.0,0.0,0.0,0.0,0.0
268535.1491508287,3.1036545435540476e+16,3.1052397864825824e+16,15852429285385.906,0.0,0.0,0.0,0.0,0.0
295389.6640659116,3.1036545435540476e+16,3.1052397864825824e+16,15852429285385.906,0.0,0.0,0.0,0.0,0.0
324929.6304725028,3.1036545435540476e+16,3.1052397864825824e+16,15852429285385.906,0.0,0.0,0.0,0.0,0.0
357423.5935197531,3.1036545435540476e+16,3.1052397864825824e+16,15852429285385.906,0.0,0.0,0.0,0.0,0.0
393166.95287172846,3.1036545435540476e+16,3.1052397864825824e+16,15852429285385.906,0.0,0.0,0.0,0.0,0.0
432484.6481589014,3.1036545435540476e+16,3.1052397864825824e+16,15852429285385.906,0.0,0.0,0.0,0.0,0.0
475734.11297479155,3.1036545435540476e+16,3.1052397864825824e+16,15852429285385.906,0.0,0.0,0.0,0.0,0.0
523308.52427227073,3.1036545435540476e+16,3.1052397864825824e+16,15852429285385.906,0.0,0.0,0.0,0.0,0.0
575640.3766994978,3.1036545435540476e+16,3.1052397864825824e+16,15852429285385.906,0.0,0.0,0.0,0.0,0.0
633205.4143694476,3.1036545435540476e+16,3.1052397864825824e+16,15852429285385.906,0.0,0.0,0.0,0.0,0.0
696526.9558063925,3.1036545435540476e+16,3.1052397864825824e+16,15852429285385.906,0.0,0.0,0.0,0.0,0.0
766180.6513870318,3.1036545435540476e+16,3.1052397864825824e+16,15852429285385.906,0.0,0.0,0.0,0.0,0.0
842799.716525735,3.1036545435540476e+16,3.1052397864825824e+16,15852429285385.906,0.0,0.0,0.0,0.0,0.0
927080.6881783085,3.1036545435540476e+16,3.1052397864825824e+16,15852429285385.906,0.0,0.0,0.0,0.0,0.0
1019789.7569961395,3.1036545435540476e+16,3.1052397864825824e+16,15852429285385.906,0.0,0.0,0.0,0.0,0.0
1121769.7326957537,3.1036545435540476e+16,3.1052397864825824e+16,15852429285385.906,0.0,0.0,0.0,0.0,0.0
1233947.7059653292,3.1036545435540476e+16,3.1052397864825824e+16,15852429285385.906,0.0,0.0,0.0,0.0,0.0
1357343.4765618623,3.1036545435540476e+16,3.1052397864825824e+16,15852429285385.906,0.0,0.0,0.0,0.0,0.0
1493078.8242180487,3.1036545435540476e+16,3.1052397864825824e+16,15852429285385.906,0.0,0.0,0.0,0.0,0.0
1642387.7066398538,3.1036545435540476e+16,3.1052397864825824e+16,15852429285385.906,0.0,0.0,0.0,0.0,0.0
1806627.4773038393,3.1036545435540476e+16,3.1052397864825824e+16,15852429285385.906,0.0,0.0,0.0,0.0,0.0
1987291.2250342234,3.1036545435540476e+16,3.1052397864825824e+16,15852429285385.906,0.0,0.0,0.0,0.0,0.0
2186021.347537646,3.1036545435540476e+16,3.1052397864825824e+16,15852429285385.906,0.0,0.0,0.0,0.0,0.0
2404624.4822914107,3.1036545435540476e+16,3.1052397864825824e+16,15852429285385.906,0.0,0.0,0.0,0.0,0.0
2645087.9305205517,3.1036545435540476e+16,3.1052397864825824e+16,15852429285385.906,0.0,0.0,0.0,0.0,0.0
2909597.723572607,3.1036545435540476e+16,3.1052397864825824e+16,15852429285385.906,0.0,0.0,0.0,0.0,0.0
3200558.495929868,3.1036545435540476e+16,3.1052397864825824e+16,15852429285385.906,0.0,0.0,0.0,0.0,0.0
3520615.345522855,3.1036545435540476e+16,3.1052397864825824e+16,15852429285385.906,0.0,0.0,0.0,0.0,0.0
3872677.880075141,3.1036545435540476e+16,3.1052397864825824e+16,15852429285385.906,0.0,0.0,0.0,0.0,0.0
4259946.668082655,3.1036545435540476e+16,3.1052397864825824e+16,15852429285385.906,0.0,0.0,0.0,0.0,0.0
4685942.334890922,3.1036545435540476e+16,3.1052397864825824e+16,15852429285385.906,0.0,0.0,0.0,0.0,0.0
5154537.568380014,3.1036545435540476e+16,3.1052397864825824e+16,15852429285385.906,0.0,0.0,0.0,0.0,0.0
5669992.325218016,3.1036545435540476e+16,3.1052397864825824e+16,15852429285385.906,0.0,0.0,0.0,0.0,0.0
6236992.5577398185,3.1036545435540476e+16,3.1052397864825824e+16,15852429285385.906,0.0,0.0,0.0,0.0,0.0
6860692.8135138005,3.1036545435540476e+16,3.1052397864825824e+16,15852429285385.906,0.0,0.0,0.0,0.0,0.0
7546763.0948651815,3.1036545435540476e+16,3.1052397864825824e+16,15852429285385.906,0.0,0.0,0.0,0.0,0.0
8301440.4043517,3.1036545435540476e+16,3.1052397864825824e+16,15852429285385.906,0.0,0.0,0.0,0.0,0.0
9131585.44478687,3.1036545435540476e+16,3.1052397864825824e+16,15852429285385.906,0.0,0.0,0.0,0.0,0.0
10044744.98926556,3.1036545435540476e+16,3.1052397864825824e+16,15852429285385.906,0.0,0.0,0.0,0.0,0.0
11049220.488192115,3.1036545435540476e+16,3.1052397864825824e+16,15852429285385.906,0.0,0.0,0.0,0.0,0.0
12154143.537011327,3.1036545435540476e+16,3.1052397864825824e+16,15852429285385.906,0.0,0.0,0.0,0.0,0.0
13369558.89071246,3.1036545435540476e+16,3.1052397864825824e+16,15852429285385.906,0.0,0.0,0.0,0.0,0.0
14706515.779783707,3.1036545435540476e+16,3.1052397864825824e+16,15852429285385.906,0.0,0.0,0.0,0.0,0.0
16177168.35776208,3.1036545435540476e+16,3.1052397864825824e+16,15852429285385.906,0.0,0.0,0.0,0.0,0.0
17794886.19353829,3.1036545435540476e+16,3.1052397864825824e+16,15852429285385.906,0.0,0.0,0.0,0.0,0.0
19574375.81289212,3.1036545435540476e+16,3.1052397864825824e+16,15852429285385.906,0.0,0.0,0.0,0.0,0.0
21531814.394181333,3.1036545435540476e+16,3.1052397864825824e+16,15852429285385.906,0.0,0.0,0.0,0.0,0.0
23684996.83359947,3.1036545435540476e+16,3.1052397864825824e+16,15852429285385.906,0.0,0.0,0.0,0.0,0.0
26053497.51695942,3.1036545435540476e+16,3.1052397864825824e+16,15852429285385.906,0.0,0.0,0.0,0.0,0.0
28658848.268655367,3.1036545435540476e+16,3.1052397864825824e+16,15852429285385.906,0.0,0.0,0.0,0.0,0.0
31524734.095520906,3.1036545435540476e+16,3.1052397864825824e+16,15852429285385.906,0.0,0.0,0.0,0.0,0.0
31536000.0,3.1036545435540476e+16,3.1052397864825824e+16,15852429285385.906,0.0,0.0,0.0,0.0,0.0
