t(s),Total solute volume 1,Total retention volume 1,Total 1 volume 1,Total 2 volume 1,Total 3 volume 1,Total 4 volume 1,Total 5 volume 1,Total 6 volume 1
1.0,2739484664630522.5,2744616094171678.0,5131429541157.082,0.0,0.0,0.0,0.0,0.0
2.1,4038732144245132.5,4338774255781754.0,7565097411334.933,37537730289.841095,197945176087.61435,4468987595034.137,99218664986669.44,188553878637210.0
3.3100000000000005,4960926203437626.0,5723846662573134.0,9292492801379.357,96808206724.68951,510492083356.2013,11526449818807.941,255870864875953.47,485623351349299.1
4.641000000000001,5685654984817640.0,7057398813569821.0,10650008812870.254,174838271016.95935,921962782475.0769,20819580334272.98,462157060571375.75,877020377980169.2
6.105100000000002,6281661461621570.0,8402262286616608.0,11766410401177.127,270770783274.30283,1427837554676.2043,32247563072378.953,715863372101806.2,1359024871081734.2
7.7156100000000025,6784229891502336.0,9794102053478418.0,12707789787339.207,384578966356.9906,2027975357740.3987,45808615099473.82,1016968120848200.8,1931975081916997.2
9.487171000000004,7214599508827363.0,1.1258089795584e+16,13513930950318.322,516700443433.48444,2724684039657.404,61556501182288.96,1366679502505115.0,2598498967635845.5
11.435888100000005,7586925151356417.0,1.2814820126179686e+16,14211347829208.77,667896935272.9178,3521980500475.094,79583908564715.6,1767067859667652.8,3362841981325933.5
13.579476910000007,7911330013829129.0,1.4482917522363532e+16,14819002546616.566,839193256887.8362,4425269015493.662,100015270030998.81,2220907064200284.8,4230581709484144.5
15.937424601000009,8195434346241884.0,1.6280380114240568e+16,15351168868794.705,1031850698715.4785,5441200875674.317,123003694501604.53,2731606820023728.5,5208511033030176.0
18.53116706110001,8445197168658248.0,1.822536910642537e+16,15819008852147.15,1247357666926.4082,6577625039922.277,148729971228415.53,3303190876828973.0,6304607098150739.0
21.384283767210015,8665414498146591.0,2.0336731249159644e+16,16231506090147.326,1487430071376.345,7843590189987.27,177402758139547.66,3940301469319479.5,7528049997202494.0
24.522712143931017,8860031864691731.0,2.2634385342675708e+16,16596051098202.074,1754017835166.1267,9249379067477.523,209259527980531.97,4648220544458130.0,8889273957544453.0
27.97498335832412,9032350064038094.0,2.5139638266986564e+16,16918826716741.234,2049315656809.852,10806565237719.795,244568055946810.25,5432902988232393.0,1.0400042451157996e+16
31.772481694156536,9185166392998526.0,2.787546597553782e+16,17205072664175.744,2375777019592.2837,12528086979094.508,283628336457645.5,6301019364910531.0,1.2073542944508228e+16
35.949729863572195,9320875225375164.0,3.086678007483533e+16,17459273929283.37,2736130893827.8623,14428335375456.562,326774871844816.1,7260006902503887.0,1.392449933491287e+16
40.544702849929415,9441542012419682.0,3.4140692887535976e+16,17685299384137.086,3133400823055.0845,16523254982972.875,374379306647530.44,8318128143053214.0,1.5969301470225356e+16
45.59917313492236,9548959336753732.0,3.77267896962981e+16,17886506780721.34,3570926220573.503,18830456156670.676,426853399372717.3,9484537078900360.0,1.8226151992113304e+16
51.1590904484146,9644690478248666.0,4.16574145178679e+16,18065824355747.645,4052385775337.216,21369338504986.37,484652334668697.9,1.0769352841821822e+16,2.071523131449268e+16
57.27499949325607,9730104043698778.0,4.596797443167953e+16,18225815696740.516,4581822900267.183,24161225120300.02,548278385817765.25,1.2183741166044834e+16,2.3458881972400776e+16
64.00249944258168,9806402031565072.0,5.0697266752479096e+16,18368732311117.742,5163673164210.914,27229507276680.28,618284941864376.4,1.3740003943838746e+16,2.64818139224588e+16
71.40274938683986,9874642953409364.0,5.588783295746625e+16,18496556935778.54,5802793637597.195,30599799227309.812,695280916425637.1,1.5451677252732002e+16,2.981133268509841e+16
79.54302432552385,9935761146877182.0,6.1586343123053384e+16,18611039712947.043,6504494054380.125,34300102589530.742,779935556742956.0,1.7333638266705408e+16,3.347759251637091e+16
88.49732675807624,9990583092578876.0,6.784401461787742e+16,18713728753908.82,7274569650123.311,38360979580331.71,872983672053983.9,1.940222147495129e+16,3.7513877100308856e+16
98.34705943388387,1.0039841329461746e+16,7.471706889129205e+16,18805996204395.465,8119335477672.083,42815734057441.35,975231299966600.9,2.1675344622586396e+16,4.1956910573537576e+16
109.18176537727226,1.008418641352701e+16,8.226723036220251e+16,18889060644889.047,9045661926479.34,47700598924043.13,1087561828171107.2,2.4172644757383508e+16,4.684720204162557e+16
121.09994191499949,1.012419725988467e+16,9.056227163411362e+16,18964006462697.492,10061011077247.463,53054927957728.63,1210942586421268.0,2.6915624712632304e+16,5.222942712967763e+16
134.20993610649944,1.0160390133320184e+16,9.967660952723955e+16,19031800692510.562,11173473407511.664,58921389512863.945,1346431920069191.0,2.992781027464169e+16,5.81528505355955e+16
148.6309297171494,1.0193226498133536e+16,1.0969195671986088e+17,19093307720218.02,12391804223031.445,65346158803795.88,1495186751307833.5,3.3234918168700196e+16,6.4671794030972216e+16
164.49402268886433,1.0223119897638474e+16,1.2069803412327376e+17,19149302169148.41,13725459020919.797,72379104586019.86,1658470627348467.2,3.686503484259096e+16,7.1846154889919416e+16
181.94342495775078,1.02504420031455e+16,1.3279334947356134e+17,19200480230639.35,15184626789595.5,80073964993912.8,1837662245659463.2,4.084880582361221e+16,7.974198032912952e+16
201.13776745352587,1.0275527948642758e+16,1.4608604800541814e+17,19247469656622.37,16780260014061.068,88488506046657.4,2034264434664328.2,4.521963516337293e+16,8.84321042230205e+16
222.25154419887846,1.0298681048780708e+16,1.6069484147501034e+17,19290838597052.02,18524099878929.188,97684654878750.5,2249913553406691.8,5.00138941525316e+16,9.799685312693624e+16
245.47669861876633,1.0320176982823838e+16,1.7675002221697683e+17,19331103437018.527,20428694842688.14,107728598070205.08,2486389255012905.5,5.527113807123911e+16,1.0852482951155138e+17
271.024368480643,1.0340267515010492e+16,1.94394569351415e+17,19368735765489.695,22507410392319.355,118690833530561.86,2745624535599384.5,6.103432922431031e+16,1.201137810968062e+17
299.1268053287073,1.0359183811595056e+16,2.1378535469594157e+17,19404168588584.51,24774427376320.9,130646162223456.94,3029715961756865.0,6.735006387473194e+16,1.3287156628966952e+17
330.03948586157804,1.0377139406251398e+16,2.3509445638124227e+17,19437801884178.66,27244725857255.145,143673603608988.62,3340933934966045.5,7.426879991437787e+16,1.4691722699429594e+17
364.0434344477359,1.0394332858132916e+16,2.585105886108324e+17,19470007580814.844,29934050925982.344,157856216049561.1,3681732809220775.0,8.184508117359774e+16,1.6238218149532448e+17
401.44777789250946,1.0410950140442688e+16,2.8424065644214755e+17,19501134031820.965,32858856386834.555,173280800613787.22,4054760627618225.0,9.013775314651446e+16,1.7941155173653936e+17
442.5925556817604,1.0427166791651468e+16,3.125114448912695e+17,19531510044836.35,36036221670003.8,190037463795211.75,4462868183499705.0,9.921016356924981e+16,1.9816564115135837e+17
487.8518112499365,1.0443149856340888e+16,3.435714520733234e+17,19561448517275.773,39483736775845.26,208219011751247.66,4909117040619831.0,1.0913033970579234e+17,2.1882158127352646e+17
537.6369923749302,1.0459059637898104e+16,3.776928764815243e+17,19591249719367.61,43219349536988.62,227920145927617.97,5396786063514495.0,1.1997113234265634e+17,2.4157516769227142e+17
592.4006916124232,1.0475051280824892e+16,4.1517376887941536e+17,19621204258034.43,47261169041802.81,249236427595037.8,5929375912535928.0,1.3181031434254496e+17,2.6664290854261482e+17
652.6407607736655,1.0491276196130586e+16,4.5634035963626406e+17,19651595746850.15,51627218755708.93,272262977197448.44,6510610846925468.0,1.447306191369422e+17,2.942643116645653e+17
718.9048368510321,1.05078833390636e+16,5.015495726840609e+17,19682703199405.227,56335132781826.44,297092873899162.75,7144437053155204.0,1.5881970173387882e+17,3.247044398480821e+17
791.7953205361354,1.0525020344193848e+16,5.5119173763447776e+17,19714803155472.645,61401788916696.56,323815221834045.75,7835016574516857.0,1.7417000167896157e+17,3.58256767222899e+17
871.9748525897489,1.0542834518514194e+16,6.056935119959736e+17,19748171541222.215,66842872799901.19,352512852933120.8,8586715762372883.0,1.9087848395358112e+17,3.952463738642307e+17
960.1723378487239,1.056147368869144e+16,6.655210259230505e+17,19783085256238.54,72672368670544.84,383259642587796.4,9404087001683394.0,2.0904623007080874e+17,4.360335200653543e+17
1057.1895716335964,1.0581086893808472e+16,7.311832625824658e+17,19819823471122.047,78901974191777.39,416117424653522.4,1.0291842287224354e+16,2.2877784772328637e+17,4.810176464558299e+17
1163.9085287969563,1.0601824909834264e+16,8.03235688136265e+17,19858668609893.56,85540439664865.77,451132507352283.56,1.1254817048573772e+16,2.5018066338858128e+17,5.30641851173648e+17
1281.299381676652,1.0623840586612982e+16,8.822841466593523e+17,19899906981220.7,92592835908806.84,488331812453007.8,1.2297922450910304e+16,2.7336365851736352e+17,5.853979005491218e+17
1410.4293198443174,1.064728897237108e+16,9.689890372187777e+17,19943829011638.85,100059760298075.52,527718687583752.75,1.3426084248517582e+16,2.9843610662171475e+17,6.458318350992813e+17
1552.4722518287492,1.0672327194655584e+16,1.0640697930922442e+18,19990729022531.387,107936497056083.75,569268476327759.1,1.4644166157396418e+16,3.255058661638928e+17,7.125502378738912e+17
1708.7194770116243,1.0699114060342196e+16,1.1683096870143598e+18,20040904480891.49,116212155941631.47,612923973125341.2,1.595687566770415e+16,3.546772831806819e+17,7.862272370720859e+17
1880.5914247127869,1.0727809331104988e+16,1.2825609918128305e+18,20094654642178.94,124868822855729.9,658590939507193.2,1.736865026858987e+16,3.8604865879372685e+17,8.676123190024042e+17
2069.6505671840655,1.0758572624846472e+16,1.4077505333241513e+18,20152278492548.95,133880766359737.47,706133913369434.0,1.888352224870393e+16,4.197092410717286e+17,9.575390304206499e+17
2277.615623902472,1.0791561888543578e+16,1.5448856826438938e+18,20214071888285.305,143213755092496.0,755372601027848.8,2.0504960615869708e+16,4.5573570925118317e+17,1.0569346504602888e+18
2506.3771862927197,1.082693138448734e+16,1.6950608482395057e+18,20280323783753.16,152824551728973.3,806079198054885.5,2.223568930894974e+16,4.9418813241698605e+17,1.166830911055512e+18
2758.0149049219917,1.086482913094445e+16,1.8594645459683323e+18,20351311437409.75,162660658166049.62,857977032723977.1,2.407748182149914e+16,5.351054058925155e+17,1.2883758401210427e+18
3034.816395414191,1.0905393741135806e+16,2.039387147357836e+18,20427294490780.777,172660392360309.28,910740956348267.5,2.6030933692505172e+16,5.785001983859916e+17,1.422846792895006e+18
3339.2980349556105,1.0948750612735724e+16,2.2362294343263854e+18,20508507830874.004,182753377595091.94,963999906925848.9,2.8095216114559664e+16,6.243534829338323e+17,1.5716647228729068e+18
3674.227838451172,1.0995007435836348e+16,2.4515121224024305e+18,20595153175983.68,192861517570319.7,1017342033900569.2,3.0267816222090876e+16,6.726087761401574e+17,1.7364097238997025e+18
4042.6506222962894,1.1044249012792338e+16,2.6868865546753905e+18,20687389372555.17,202900513226298.4,1070322680040321.4,3.2544272481674612e+16,7.231662737732887e+17,1.9188378488249943e+18
4447.915684525919,1.109653142105427e+16,2.9441468149035843e+18,20785321461375.5,212781947664087.7,1122475361014206.1,3.4917916992983656e+16,7.75877145968995e+17,2.1208991778904148e+18
4893.707252978511,1.1151875602416896e+16,3.2252435593666217e+18,20888988669362.473,222415922908373.94,1173325658875411.0,3.737964032436383e+16,8.30538339883647e+17,2.344757072985752e+18
5384.077978276362,1.1210260530947076e+16,3.5322999210803323e+18,20998351612162.203,231714177234986.34,1222407655735403.5,3.991769854072113e+16,8.868883269163668e+17,2.592808514907713e+18
5923.485776103998,1.1271616197903558e+16,3.8676298934588334e+18,21113279153947.24,240593547406156.75,1269282194443698.2,4.2517585973959016e+16,9.446043175517518e+17,2.86770538471422e+18
6516.834353714399,1.1335816753781156e+16,4.233759648426602e+18,21233535561530.125,248979572448780.53,1313555895744960.2,4.51620004973175e+16,1.0033015374320269e+18,3.172376524739715e+18
7169.5177890858395,1.1402674260487176e+16,4.633452279758671e+18,21358768801336.715,256809973763964.03,1354899534548332.5,4.783092985707682e+16,1.0625351970607009e+18,3.510050410303291e+18
7887.469567994424,1.1471933621285332e+16,5.069736478086265e+18,21488501042498.664,264037702220720.94,1393064144071269.0,5.05018870693136e+16,1.1218057741960077e+18,3.8842782928523305e+18
8677.216524793868,1.1543269357578322e+16,5.545939630844485e+18,21622122619324.336,270633229516024.34,1427893144594586.0,5.315031897480205e+16,1.180568139711186e+18,4.2989577543041905e+18
9545.938177273256,1.1616284968707006e+16,6.065725790263682e+18,21758890832112.45,276585790211800.66,1459328945427153.0,5.575020376320568e+16,1.2382448724756296e+18,4.758356755429663e+18
10501.531995000581,1.169051561597116e+16,6.633138859630098e+18,21897934974683.01,281903359485391.75,1487412881615612.2,5.82748398904126e+16,1.2942438104741914e+18,5.26713847947345e+18
11552.68519450064,1.1765434797398428e+16,7.252651210347417e+18,22038268837124.24,286611278740926.06,1512278015986696.0,6.069781023494002e+16,1.3479794726559972e+18,5.830387565095519e+18
12708.953713950705,1.1840465452158586e+16,7.929217770428676e+18,22178811505866.688,290749603338049.75,1534135191553212.0,6.299408214477139e+16,1.3988974707769667e+18,6.453638688448341e+18
13980.849085345777,1.1914995648956628e+16,8.668335427001264e+18,22318416750174.508,294369422531936.2,1553253647318703.8,6.5141178875735784e+16,1.4465004748983416e+18,7.142908836091625e+18
15379.933993880357,1.1988398505432344e+16,9.476107399684278e+18,22455910333889.363,297528554518010.4,1569938318275998.0,6.712033349235886e+16,1.490373755680551e+18,7.904734989222803e+18
16918.927393268394,1.2060055465070934e+16,1.0359312096592394e+19,22590133616249.895,300287118712036.94,1584506466750260.5,6.891751825130481e+16,1.5302079307253655e+18,8.746219208431596e+18
18611.820132595236,1.2129381474421726e+16,1.1325475907731343e+19,22719990712250.703,302703502850630.2,1597266377251804.0,7.052423558081406e+16,1.5658163936346742e+18,9.675083207170615e+18
20474.00214585476,1.2195850109412792e+16,1.2382949460360708e+19,22844495557653.18,304831164938920.2,1608500441209745.2,7.193796601160035e+16,1.597145114596715e+18,1.0699734353541255e+19
22522.40236044024,1.2259016397967826e+16,1.3540987084229083e+19,22962814658860.582,306716551584617.75,1618454124251065.2,7.31621963264446e+16,1.6242731248529021e+18,1.1829344613161265e+19
24775.642596484264,1.2318535076898144e+16,1.480982961467352e+19,23074301290572.754,308398209250981.94,1627331227947505.5,7.420599667730555e+16,1.6474030086289073e+18,1.3073943270551892e+19
27254.206856132692,1.2374172388503044e+16,1.6200791164238094e+19,23178517592437.72,309906962071800.6,1635294786561036.0,7.50831730298817e+16,1.6668420044850278e+18,1.444452343406844e+19
29980.627541745966,1.2425810194184812e+16,1.7726351063805942e+19,23275242274427.992,311266874842371.8,1642472118931035.8,7.581108089872366e+16,1.6829756358315732e+18,1.5953161522645383e+19
32979.69029592056,1.2473442153490006e+16,1.9400252713576944e+19,23364463459680.523,312496646526834.2,1648962165872580.5,7.640923636205718e+16,1.696236894926582e+18,1.761314831685897e+19
36278.65932551262,1.2517162721223852e+16,2.1237611508925362e+19,23446358074609.758,313611092210186.9,1654843306882766.8,7.689788874547077e+16,1.7070746260714002e+18,1.943912993063009e+19
39907.525258063884,1.2557150618308928e+16,2.325503423627025e+19,23521260887586.797,314622453001678.75,1660180278332842.5,7.729671919870187e+16,1.7159247421759217e+18,2.1447257300285047e+19
43899.277783870275,1.259364902330346e+16,2.5470752336761352e+19,23589627404965.56,315541388602480.0,1665029422420630.8,7.762379983097374e+16,1.7231872467304637e+18,2.3655343480738128e+19
48290.20556225731,1.2626944911535272e+16,2.7904771229362033e+19,23651995170471.617,316377619365488.4,1669442088110859.5,7.789489591132142e+16,1.7292108729742423e+18,2.6083029043862266e+19
53120.22611848305,1.2657349731431304e+16,3.057903753878511e+19,23708947569335.816,317140266715852.56,1673466439281312.2,7.812313130410034e+16,1.734285769946026e+18,2.8751956972150063e+19
58433.24873033136,1.2685183046682142e+16,3.3517625688231862e+19,23761083187837.16,317837981920011.6,1677148143552696.5,7.831897926866251e+16,1.738643381836549e+18,3.1685959396871377e+19
64277.57360336451,1.2710760047633096e+16,3.674694499519357e+19,23808992420430.95,318478957547521.75,1680530439340178.2,7.849049921314957e+16,1.742461752119553e+18,3.4911259165423886e+19
70706.33096370097,1.273438311948124e+16,4.029596822756089e+19,23853241675825.008,319070896645746.0,1683653977360078.2,7.864372150017318e+16,1.7458740806536005e+18,3.8456689464172e+19
77777.96406007107,1.2756337087704218e+16,4.419648256858731e+19,23894364471011.836,319620986408881.9,1686556684083307.5,7.878308656621387e+16,1.7489784598899517e+18,4.235393461300843e+19
85556.76046607818,1.2776887416572724e+16,4.8483364086713295e+19,23932858056828.207,320135897175433.3,1689273757698463.5,7.891186527749363e+16,1.7518471777342172e+18,4.663779481377216e+19
94113.436512686,1.2796280518125652e+16,5.319487705879783e+19,23969183996700.305,320621808391630.44,1691837805652217.5,7.903251558305659e+16,1.7545345992007708e+18,5.134647723469786e+19
103525.78016395462,1.281474538704238e+16,5.837299978845874e+19,24003771228976.777,321084461896425.94,1694279126285118.8,7.91469575773458e+16,1.7570832374256392e+18,5.652191548070938e+19
113879.3581803501,1.28324959375625e+16,6.4063778837852545e+19,24037020444291.99,321529217494951.4,1696626001891849.2,7.92567693595295e+16,1.7595280716912292e+18,6.221011930862445e+19
125268.29399838512,1.284973361112749e+16,7.031771381436601e+19,24069308970031.582,321961122476069.2,1698905065722422.0,7.936331757442805e+16,1.7618994225071421e+18,6.846155640517608e+19
137796.12339822366,1.28666499978262e+16,7.719017500819218e+19,24100995680653.887,322384977294746.9,1701141648560297.0,7.94678402693372e+16,1.7642247749800292e+18,7.533156811532326e+19
151576.73573804603,1.288342934625888e+16,8.474185626383412e+19,24132425699006.516,322805398458714.0,1703360110550721.5,7.957149831159624e+16,1.766529909786235e+18,8.28808211284557e+19
166735.40931185064,1.2900250921505722e+16,9.303926549586223e+19,24163934813120.7,323226877609266.4,1705584152948721.5,7.967540785404056e+16,1.7688396173626038e+18,9.117579724475874e+19
183409.95024303574,1.2917291217942172e+16,1.0215525523302821e+20,24195853621116.445,323653836965180.2,1707837110677532.0,7.978066159248619e+16,1.7711781805722207e+18,1.0028932341284443e+20
201751.94526733932,1.2934726054820262e+16,1.1216959549584982e+20,24228511456510.996,324090681829237.75,1710142229388331.5,7.988834769913451e+16,1.7735697336840123e+18,1.1030114422698915e+20
221928.13979407327,1.2952732587975588e+16,1.2316959117744891e+20,24262240156421.125,324541850993220.8,1712522931431536.8,7.99995603374132e+16,1.7760385823099617e+18,1.2129853897519122e+20
244121.9537734806,1.297149127642783e+16,1.3525074587096377e+20,24297377745273.0,325011866012739.06,1715003075864908.5,8.011541404134882e+16,1.7786094629124024e+18,1.3337698519041398e+20
268535.1491508287,1.2991187829464092e+16,1.4851747380401055e+20,24334272081955.812,325505379993038.44,1717607215881625.0,8.023705573742714e+16,1.7813078233035205e+18,1.4664087029027211e+20
295389.6640659116,1.3012015168306592e+16,1.630838610997913e+20,24373284534292.527,326027226740235.75,1720360858166759.8,8.036567685683709e+16,1.7841600907393037e+18,1.6120425255565702e+20
324929.6304725028,1.3034175427875102e+16,1.7907447702867716e+20,24414793728614.44,326582470917170.3,1723290727554826.5,8.050252569541274e+16,1.7871939455286543e+18,1.7719167209403236e+20
