t(s),Total solute volume 1,Total retention volume 1,Total 1 volume 1,Total 2 volume 1,Total 3 volume 1,Total 4 volume 1,Total 5 volume 1,Total 6 volume 1
1.0,4091111498795143.5,4161545596435983.0,70434097640829.31,0.0,0.0,0.0,0.0,0.0
2.1,6283554810717982.0,6397124046244693.0,108179880019264.42,740078046.1123773,6980815802.670282,314494984133.73706,3741845223495.742,1325294405955.6301
3.3100000000000005,8045320322729437.0,8198138545987327.0,138510981584712.36,1989701495.69829,18767277587.683243,843091371287.0458,9893445393419.402,3549947929404.028
4.641000000000001,9617415619589682.0,9809742384546178.0,165576667338597.12,3748526610.1521087,35356183967.79477,1585833799872.5803,18449929547405.527,6675229560099.225
6.105100000000002,1.1089545242834832e+16,1.132349798455711e+16,190921316219786.62,6059594445.749685,57153516815.24087,2561052508265.2407,29623930929199.887,10783228953765.516
7.7156100000000025,1.2506605280919124e+16,1.2785538742968364e+16,215317872017905.62,8988537502.576782,84778306654.87659,3796527598872.1255,43731881215298.984,15993414372997.014
9.487171000000004,1.3895062982654758e+16,1.42233714273251e+16,239222002472591.03,12618858861.560364,119018119090.77812,5327547700795.075,61172635459908.52,22454622059084.297
11.435888100000005,1.5272291824776762e+16,1.5655368200412482e+16,262932814397041.8,17051242276.90987,160822552332.88428,7196643729224.675,82424934011923.89,30344109702889.91
13.579476910000007,1.6650617337382186e+16,1.709488838746681e+16,286662507728957.7,22404420937.18466,211311432442.46652,9453970657141.385,108051798466054.69,39869057379049.66
15.937424601000009,1.8039319718440196e+16,1.8552327130115384e+16,310570853098673.8,28816880015.17356,271790871200.04532,12158038512208.148,138708627763524.69,51269284549623.01
18.53116706110001,1.9445722914743108e+16,2.003623822526378e+16,334783941751711.6,36449143425.272,343774833263.7661,15376690462938.4,175153908337474.25,64820545991844.55
21.384283767210015,2.087583056330645e+16,2.1553997852849116e+16,359405134095697.6,45486561787.52844,429011430066.7697,19188295018809.56,218262183013813.94,80837179422494.48
24.522712143931017,2.2334721691338956e+16,2.3112221955871892e+16,384521872185627.9,56142595749.79861,529513885589.91327,23683152225036.406,269039268143170.3,99670315497759.67
27.97498335832412,2.382681956130405e+16,2.471704313928605e+16,410210308244535.3,68662649641.86693,647596693223.6215,28965141317869.184,328639986071855.5,121691883004950.66
31.772481694156536,2.535610613839433e+16,2.6374303569911656e+16,436538997014786.25,83328589158.30687,785918226310.3246,35153674215852.723,398388806739328.9,147246706731943.9
35.949729863572195,2.6926328563289148e+16,2.8089695772664484e+16,463572450482028.94,100464158844.6229,947531839498.8878,42386055171930.16,479802531642540.94,176558176080431.62
40.544702849929415,2.854119482942034e+16,2.9868870156653428e+16,491374506732870.44,120441471981.40353,1135947087023.2268,50820312066880.25,574608122793577.9,209615997080719.2
45.59917313492236,3.0204480208157256e+16,3.1717520664112016e+16,520010162158841.6,143688410153.08438,1355199509146.7754,60638370566788.89,684736338230888.2,246156697078939.44
51.1590904484146,3.191997214224202e+16,3.3641455214224536e+16,549544622566207.75,170696471189.15198,1609924608561.1077,72049261127566.64,812266952974135.0,285841614234879.56
57.27499949325607,3.3691358784343508e+16,3.564665400754263e+16,580041383980464.2,202029210168.258,1905437360927.1074,85292335721038.55,959328024662519.1,328526012263958.8
64.00249944258168,3.552225812195305e+16,3.773931531106257e+16,611562733826294.2,238332390587.0249,2247827790110.1265,100640952101931.02,1127990127479934.2,374377215520646.06
71.40274938683986,3.741638190852698e+16,3.992588459249316e+16,644172572975170.6,280346565142.6708,2644079372942.7163,118406867546516.8,1320197418039693.8,423801399466702.06
79.54302432552385,3.9377664050651176e+16,4.2213058851972904e+16,677938625810136.4,328921668782.91754,3102206289500.1235,138945013555108.5,1537753542302755.2,477326491695442.2
88.49732675807624,4.141024835289229e+16,4.460775426372356e+16,712932228904938.4,385032869879.015,3631402358351.0557,162658206967363.34,1782365293711750.2,535533746018937.0
98.34705943388387,4.351830786970843e+16,4.7117022867004936e+16,749225220609721.0,449796849239.0113,4242193795296.9785,190001427510888.75,2055746168331592.2,599050190199845.0
109.18176537727226,4.570587592834831e+16,4.974790380427342e+16,786887031717471.6,524489495265.90106,4946605146816.709,221486251699283.38,2359693818508068.0,668489679358105.6
121.09994191499949,4.7976353575692376e+16,5.2507199067233784e+16,825976205433799.2,610560746069.9562,5758298093376.214,257683728058208.8,2696267072493681.0,744549626716327.4
134.20993610649944,5.033219975871693e+16,5.540117122980817e+16,866535063657446.9,709650457417.5803,6692719854279.682,299227834765520.9,3067845837275644.5,827960365081054.8
148.6309297171494,5.277446733170889e+16,5.843517263496219e+16,908581719152699.0,823600818043.3903,7767218963774.921,346817830381923.5,3477205450598941.5,919509483338107.6
164.49402268886433,5.5302344795099736e+16,6.161322877283548e+16,952102186615124.2,954465360780.743,9001128993592.16,401219933624348.6,3927554726948001.5,1020051536193934.0
181.94342495775078,5.791270769505382e+16,6.49376106893448e+16,997042660220800.2,1104512997369.5754,10415805493354.654,463268007622195.2,4422554460679090.0,1130517547278043.8
201.13776745352587,6.0599712570124024e+16,6.8408439345508856e+16,1043302523782438.2,1276225744751.76,12034603698249.521,533863024308131.94,4966325680190499.0,1251924717660868.8
222.25154419887846,6.335447057639483e+16,7.20233671922792e+16,1090728732718930.4,1472288988173.6484,13882786238473.809,613971153465263.0,5563455102631579.0,1385386551841972.8
245.47669861876633,6.616483685955704e+16,7.577737872299986e+16,1139112188747488.2,1695573418166.0173,15987352846501.424,704620437003144.0,6219002716231593.0,1532123595195810.0
271.024368480643,6.901534592568537e+16,7.966274379150034e+16,1188186628069427.0,1949108170199.0542,18376787757249.566,806896151977285.0,6938514230919726.0,1693474958921097.5
299.1268053287073,7.188731456612639e+16,8.366914722993966e+16,1237630394102515.2,2236045190987.589,21080725157938.91,921935116455731.1,7728039588137011.0,1870910794768971.5
330.03948586157804,7.475912445913331e+16,8.7784007880826e+16,1287071303413076.8,2559615479270.154,24129538897163.22,1050919339788411.6,8594157750479744.0,2066045873635049.5
364.0434344477359,7.760668780213386e+16,9.199299084832597e+16,1336094662531895.5,2923078635087.161,27553870014849.426,1195069562097138.5,9544007453320044.0,2280654419592923.5
401.44777789250946,8.040409141805912e+16,9.628070864781426e+16,1384254357147097.8,3329668116463.8423,31384114654709.246,1355639371765020.2,1.0585323364200216e+16,2516686353871460.0
442.5925556817604,8.312440683585938e+16,1.0063159899021899e+17,1431086798417903.0,3782535712849.521,35649905257738.78,1533910737804903.5,1.1726477065983728e+16,2776285111182679.0
487.8518112499365,8.574064446745869e+16,1.0503095766856285e+17,1476127349716563.0,4284699889479.998,40379628572775.625,1731191939964314.2,1.297652237992367e+16,3061807203037234.0
537.6369923749302,8.822681806885168e+16,1.0946609318011054e+17,1518928651666197.2,4839003632739.905,45600033065400.29,1948819001195104.0,1.434524470325571e+16,3375843718443624.5
592.4006916124232,9.05590710664279e+16,1.139275550853741e+17,1559080011912614.5,5448087948553.317,51335983106665.586,2188161785016658.2,1.5843214180135914e+16,3721243970825938.5
652.6407607736655,9.271680036765576e+16,1.1841037188343205e+17,1596226751312483.2,6114386906909.744,57610414836200.97,2450635860627593.0,1.74818425817974e+16,4101141520295666.0
718.9048368510321,9.46836987012537e+16,1.2291521902841026e+17,1630088147360565.0,6840148786082.507,64444536030274.36,2737721002458233.0,1.9273443670690456e+16,4518982821830619.0
791.7953205361354,9.644862707510763e+16,1.2744942729923954e+17,1660472452905970.2,7627485268208.106,71858287971382.7,3050986727826733.0,2.1231296498363024e+16,4978558771796561.0
871.9748525897489,9.800622853072589e+16,1.3202773998412243e+17,1687287461176154.5,8478446807782.535,79871051525861.73,3392124562646049.0,2.3369710484161036e+16,5484039447079781.0
960.1723378487239,9.935720615558011e+16,1.3667273744926736e+17,1710545290967909.0,9395117566825.031,88502535463817.4,3762985783932909.5,2.5704090213105144e+16,6040012352650783.0
1057.1895716335964,1.00508213633599e+17,1.414148711096359e+17,1730360501719087.2,10379718343021.627,97773738631436.81,4165622307781849.0,2.8250996694611332e+16,6651524514950347.0
1163.9085287969563,1.0147134418427616e+17,1.4629208456160797e+17,1746941294924315.5,11434701643144.854,107707837614500.56,4602327334445173.0,3.102820042746008e+16,7324128781244374.0
1281.299381676652,1.0226324926148408e+17,1.5134904370731264e+17,1760574341969619.2,12562820523277.924,118330827826414.92,5075671550534987.0,3.405472019367539e+16,8063934711298748.0
1410.4293198443174,1.0290396762443115e+17,1.566360425554026e+17,1771604626131878.2,13767153312422.826,129671750552771.39,5588530466324344.0,3.735083744253693e+16,8877663492113082.0
1552.4722518287492,1.0341556326870787e+17,1.622076964515417e+17,1780411994178610.5,15051066795408.393,141762342547243.6,6144098032773009.0,4.0938096200912264e+16,9772713545627458.0
1708.7194770116243,1.0382076203075045e+17,1.681215437335814e+17,1787387685246203.8,16418115630733.95,154636087558029.12,6745885286067944.0,4.483923345458533e+16,1.07572210737427e+16
1880.5914247127869,1.0414165446503766e+17,1.7443670223492173e+17,1792912000629869.0,17871867672435.47,168326572377570.72,7397699885015876.0,4.9078098497015976e+16,1.1840138947172248e+16
2069.6505671840655,1.0439864681039366e+17,1.8121269277709152e+17,1797336244521883.0,19415670890228.582,182865294737465.38,8103609226128262.0,5.367950294227821e+16,1.3031316588141786e+16
2277.615623902472,1.0460971330348422e+17,1.8850851041911082e+17,1800969852515064.2,21052373351468.277,198279030306803.8,8867888333874566.0,5.8669018299084424e+16,1.434158922649407e+16
2506.3771862927197,1.0478998545565693e+17,1.9638197454789062e+17,1804073321015051.8,22784016073220.656,214586944566566.94,9694955878456468.0,6.407271287573264e+16,1.5782876056389166e+16
2758.0149049219917,1.0495165905064587e+17,2.04889338143515e+17,1806856606300375.5,24611518752524.688,231797637308591.38,1.0589301560217262e+16,6.991682352076262e+16,1.7368288249527328e+16
3034.816395414191,1.0510415983199603e+17,2.1408509418453984e+17,1809481976996122.5,26534376102331.594,249906286237261.78,1.1555407190929558e+16,7.622735665674922e+16,1.9112247865529024e+16
3339.2980349556105,1.0525448568528197e+17,2.2402189038709168e+17,1812069904952480.2,28550378408225.656,268892017682471.06,1.2597662203401786e+16,8.302961141593552e+16,2.1030618781428904e+16
3674.227838451172,1.0540763836977877e+17,2.3475045522493952e+17,1814706497736450.8,30655365677677.91,288715592718621.06,1.3720272499505438e+16,9.034761605272715e+16,2.3140850846795532e+16
4042.6506222962894,1.0556706873094806e+17,2.4631944687909456e+17,1817451163188612.0,32843021939989.14,309317470675955.25,1.4927160003245618e+16,9.820346792242158e+16,2.546213856667426e+16
4447.915684525919,1.057350799891583e+17,2.587751575198598e+17,1820343552235119.8,35104715791935.758,330616307771852.06,1.622184940054659e+16,1.066165678262305e+17,2.801559572812576e+16
4893.707252978511,1.0591315743724533e+17,2.7216103191566493e+17,1823409234789485.2,37429395210828.06,352507966749748.44,1.7607338494868856e+16,1.1560274186528034e+17,3.0824447521520276e+16
5384.077978276362,1.061022140870704e+17,2.865169862611716e+17,1826663928675186.8,39803548200272.81,374865146730326.8,1.908594935720375e+16,1.2517324832751309e+17,3.3914241865778892e+16
5923.485776103998,1.0630275716505638e+17,3.0187853682076634e+17,1830116365925729.0,42211244708760.12,397537778873532.56,2.065915883962465e+16,1.3533367360045875e+17,3.731308182611868e+16
6516.834353714399,1.0651498900750629e+17,3.182757673982354e+17,1833770029746572.5,44634278044502.52,420354359549965.8,2.2327408862264988e+16,1.460827296494274e+17,4.105188121169528e+16
7169.5177890858395,1.0673885883910794e+17,3.357321806132652e+17,1837624045908743.5,47052424448914.72,443124396748107.2,2.4089899032313436e+16,1.5741097621700224e+17,4.516464565773628e+16
7887.469567994424,1.0697408103431032e+17,3.542634923407784e+17,1841673497130380.2,49443836673442.85,465642118819029.8,2.5944366548987944e+16,1.692995035721373e+17,4.968878173272086e+16
8677.216524793868,1.0722013271958477e+17,3.7387644333864403e+17,1845909381803056.0,51785580813002.62,487691532515446.9,2.7886860991898684e+16,1.8171862626417805e+17,5.466543686785091e+16
9545.938177273256,1.0747624046289349e+17,3.945677182614249e+17,1850318384850384.2,54054315174769.664,509052818587234.8,2.9911524495768716e+16,1.9462665459752966e+17,6.01398731866205e+16
10501.531995000581,1.0774136316663347e+17,4.1632308007887904e+17,1854882583228682.0,56227095944254.9,529509921160202.6,3.201039094868484e+16,2.079688277426826e+17,6.616187862054418e+16
11552.68519450064,1.0801417643424653e+17,4.391168463642398e+17,1859579176798232.5,58282277740603.55,548859030125204.1,3.417322107991069e+16,2.216765093282341e+17,7.27862190371845e+16
12708.953713950705,1.0829306256510202e+17,4.629118508436456e+17,1864380316088269.5,60200459390000.766,566917488498914.9,3.638739335491209e+16,2.356667611769372e+17,8.00731354827173e+16
13980.849085345777,1.0857610972451594e+17,4.876600458564785e+17,1869253088016068.2,61965408689534.41,583532500847909.1,3.8637873040851896e+16,2.4984242103588733e+17,8.808889105766963e+16
15379.933993880357,1.0886112347181834e+17,5.133039049882629e+17,1874159714354758.8,63564887539469.6,598588902231651.2,4.090728306192021e+16,2.6409281254494266e+17,9.690637240545571e+16
16918.927393268394,1.0914565346907061e+17,5.397787755649253e+17,1879058011541318.2,64991293880862.35,612015200708167.4,4.317609962181614e+16,2.7829520666459274e+17,1.0660575130331472e+17
18611.820132595236,1.0942703764278211e+17,5.670163032922271e+17,1883902150943478.0,66242042419014.234,623787158792745.8,4.542299226337439e+16,2.923171296253334e+17,1.1727521240858224e+17
20474.00214585476,1.0970246518976206e+17,5.949490020396929e+17,1888643743533626.8,67319624088349.6,633928348677740.1,4.762532135212309e+16,3.060195699473475e+17,1.2901175383416043e+17
22522.40236044024,1.0996905852145216e+17,6.23515968156227e+17,1893233250593088.0,68231314584159.2,642507402138745.2,4.9759795425114776e+16,3.192610743327639e+17,1.4192206790958043e+17
24775.642596484264,1.1022397251204298e+17,6.526696411655745e+17,1897621692304436.2,68988542324441.5,649632053163578.5,5.180327639007777e+16,3.319026397439227e+17,1.5612351023173914e+17
27254.206856132692,1.1046450732229728e+17,6.823833958050426e+17,1901762590051085.2,69605970308956.49,655440486676050.5,5.373370281215844e+16,3.438132106980367e+17,1.7174516592551408e+17
29980.627541745966,1.1068822878273749e+17,7.126596240205485e+17,1905614038850870.0,70100386662195.07,660090886356846.4,5.553108196809179e+16,3.548754850358848e+17,1.8892902292196454e+17
32979.69029592056,1.1089308811506376e+17,7.435378453571302e+17,1909140768394274.0,70489526618068.84,663750337855979.4,5.717848240630202e+16,3.649916311786974e+17,2.0783126302419898e+17
36278.65932551262,1.1107753102355547e+17,7.751022908923613e+17,1912316021081244.8,70790957262865.8,666584324155278.1,5.866294367796424e+16,3.740884423155635e+17,2.2862368257277725e+17
39907.525258063884,1.1124058532600987e+17,8.074883629053263e+17,1915123060607765.2,71021142231609.86,668747916735839.8,5.997621238631281e+16,3.8212141742238995e+17,2.5149525565103747e+17
43899.277783870275,1.1138191672107562e+17,8.408874019421408e+17,1917556132009861.0,71194768822821.16,670379439066526.6,6.111521718217575e+16,3.8907728370171117e+17,2.7665385399727898e+17
48290.20556225731,1.115018442833934e+17,8.755493099344449e+17,1919620728409235.2,71324372096043.62,671596927806393.4,6.208221210651201e+16,3.949745723838083e+17,3.043281391324208e+17
53120.22611848305,1.1160131087906434e+17,9.117827845613563e+17,1921333081699089.8,71420240461034.1,672497245727050.5,6.28845479463342e+16,3.998620314759618e+17,3.34769643692109e+17
58433.24873033136,1.1168180861322805e+17,9.499532001048435e+17,1922718879094767.2,71490546466187.36,673157316122893.9,6.353407243152138e+16,4.0381489171734816e+17,3.682550606010625e+17
64277.57360336451,1.1174526501562355e+17,9.90478487924433e+17,1923811303777788.5,71541623269405.0,673636729741493.0,6.4046206611277576e+16,4.0692926606238906e+17,4.0508876057835424e+17
70706.33096370097,1.117939010066587e+17,1.0338236733823057e+18,1924648589733487.5,71578304436017.5,673980948478513.0,6.443878876244472e+16,4.0931521522200506e+17,4.4560556054854957e+17
77777.96406007107,1.1183007571536838e+17,1.0804949565563314e+18,1925271350240738.5,71604259143889.73,674224465953819.0,6.4730810031838424e+16,4.110892028512417e+17,4.901737678825439e+17
85556.76046607818,1.1185613502324914e+17,1.13103432919355e+18,1925719970504408.0,71622279261940.1,674393514681440.9,6.494118029533744e+16,4.123667500904265e+17,5.3919852802008896e+17
94113.436512686,1.1187427976496506e+17,1.1860156698817495e+18,1926032338687598.5,71634500557987.47,674508152407216.4,6.50876544182795e+16,4.132560547699211e+17,5.931255059369313e+17
103525.78016395462,1.1188646596576594e+17,1.2460430543492237e+18,1926242128466591.2,71642560694238.17,674581315610676.2,6.518601913659557e+16,4.1385316813321734e+17,6.524449351088737e+17
113879.3581803501,1.1189434346494214e+17,1.3117517177244593e+18,1926377742414190.8,71647603720851.8,674628610297386.5,6.524959491647863e+16,4.142390543234784e+17,7.176960710631284e+17
125268.29399838512,1.1189923445409797e+17,1.3838117050933632e+18,1926461942530072.0,71650734839906.1,674657974650266.5,6.5289056276603256e+16,4.144785533254913e+17,7.894720903851483e+17
137796.12339822366,1.1190214502536467e+17,1.4629339817546744e+18,1926512049048260.0,71652598132729.03,674675449031977.4,6.531252662998558e+16,4.146209900376576e+17,8.684254799654534e+17
151576.73573804603,1.1190380184372718e+17,1.5498785012266258e+18,1926540571764818.0,71653658796581.48,674685396175624.8,6.532587308320379e+16,4.14701980946426e+17,9.552739657265341e+17
166735.40931185064,1.1190470253490896e+17,1.6454636628862118e+18,1926556077483387.0,71654235402077.05,674690803710770.4,6.533311316623505e+16,4.1474591130780646e+17,1.0508070347606668e+18
183409.95024303574,1.1190516978116755e+17,1.750576634350926e+18,1926564121293667.0,71654534524312.48,674693608945748.6,6.533685171843077e+16,4.1476859050697216e+17,1.155893110079592e+18
201751.94526733932,1.1190540142123778e+17,1.8661841570130575e+18,1926568109059735.2,71654682815912.88,674694999657379.5,6.533868551504764e+16,4.147797092919897e+17,1.2714874429932483e+18
221928.13979407327,1.1190551196104098e+17,1.993343640334592e+18,1926570012041701.2,71654753581408.25,674695663311933.2,6.533953850035547e+16,4.1478487484873856e+17,1.39864079459552e+18
244121.9537734806,1.1190559264971498e+17,2.1332119837710492e+18,1926571401125880.8,71654805236774.17,674696147747417.2,6.533957250020885e+16,4.147849087872879e+17,1.538508987479728e+18
268535.1491508287,1.1190560074557301e+17,2.2870664093313014e+18,1926571540498952.2,71654810419589.7,674696196353031.0,6.533957591164386e+16,4.147849121924417e+17,1.6923633979343724e+18
295389.6640659116,1.1190560755819027e+17,2.4563055529062994e+18,1926571657780576.8,71654814780898.72,674696237254353.6,6.533957878226527e+16,4.147849150576028e+17,1.8616025287984253e+18
324929.6304725028,1.1190561500177658e+17,2.642467738992289e+18,1926571785924560.8,71654819546142.12,674696281943864.5,6.533958191875437e+16,4.147849181881185e+17,2.0477647009962294e+18
357423.5935197531,1.1190562318857418e+17,2.847245088875102e+18,1926571926863191.2,71654824787175.55,674696331095435.9,6.533958536840849e+16,4.147849216312038e+17,2.2525420356041715e+18
