t(s),Total solute volume 1,Total retention volume 1,Total 1 volume 1,Total 2 volume 1,Total 3 volume 1,Total 4 volume 1,Total 5 volume 1,Total 6 volume 1
1.0,4781772169833003.0,4987227353010409.0,205455183177404.2,0.0,0.0,0.0,0.0,0.0
2.1,4712711566362894.0,9120920096727422.0,202486459602392.1,1580885829392.281,18784389034926.625,623080106514138.1,2903097004996386.0,659179684387251.4
3.3100000000000005,4651688974918590.0,1.3553089105196028e+16,199864184831841.2,3276595695668.5996,38928365755108.16,1278258497184571.2,5979240149634673.0,1401832337175580.8
4.641000000000001,4619505637808434.0,1.841736418138064e+16,198481300135034.06,5128353772497.112,60927369815354.695,1995711033483514.0,9309102353736240.0,2228508132629615.5
6.105100000000002,4600038293577933.0,2.377196296853929e+16,197644830373090.6,7159547902643.333,85058762479277.8,2784252117231774.0,1.2952380360579028e+16,3145429056395587.5
7.7156100000000025,4587859917006660.0,2.9666829116973344e+16,197121555595784.5,9392246483727.037,111584320615609.4,3651581831576823.5,1.6950279318306944e+16,4159009927387819.5
9.487171000000004,4580000585460465.0,3.615487257002751e+16,196783859871876.75,11848182118015.738,140762116571752.12,4605881914116096.0,2.134259593613593e+16,5276999975753351.0
11.435888100000005,4574748568519173.0,4.329433094629811e+16,196558193635535.47,14550039943857.734,172861633293279.38,5655933322631479.0,2.617120258741309e+16,6508476600861646.0
13.579476910000007,4571118918220978.0,5.1149549400116744e+16,196402236170812.5,17522310901931.205,208173833131506.38,6811288155693004.0,3.1481185612925412e+16,7863858333072972.0
15.937424601000009,4568541174026174.0,5.979153187214268e+16,196291476328213.7,20791803529536.03,247017220971017.9,8082428937142266.0,3.732159404064746e+16,9354867219498044.0
18.53116706110001,4566672960955769.0,6.9298527997276664e+16,196211203186217.94,24387962025072.58,289741616551992.06,9480877578518548.0,4.374600958424414e+16,1.0994627091794836e+16
21.384283767210015,4565302674614432.0,7.975669903064285e+16,196152324672271.38,28343160284424.652,336731647352668.44,1.1019311031241328e+16,5.081311325835854e+16,1.2797744934119136e+16
24.522712143931017,4564295230621928.0,9.126086947131517e+16,196109036564963.12,32692993208145.734,388410209625730.9,1.2711678047972524e+16,5.858726743873805e+16,1.4780416514584038e+16
27.97498335832412,4563561796997327.0,1.0391536639071818e+17,196077521980291.0,37476588063910.14,445242167978765.0,1.457332512610878e+16,6.7139132429614584e+16,1.696055075997444e+16
31.772481694156536,4563042469011490.0,1.1783495005542842e+17,196055206959295.72,42736943964734.77,507738389086257.8,1.6621134433280764e+16,7.654633011435046e+16,1.9357912498775584e+16
35.949729863572195,4562696051730027.0,1.3314584157948026e+17,196040321452688.4,48521303726004.016,576460160153851.5,1.8873675450013464e+16,8.689416341672594e+16,2.1994284875678344e+16
40.544702849929415,4562493849080900.0,1.4998685514030426e+17,196031632454264.56,54881561260066.305,652024029679051.5,2.1351371793706484e+16,9.827639891074394e+16,2.4893653363379636e+16
45.59917313492236,4562415777878914.0,1.6851064377184176e+17,196028277031067.0,61874707471320.0,735107105736931.9,2.407668468931141e+16,1.1079611978353582e+17,2.8082413430876056e+16
51.1590904484146,4562447871799581.0,1.888850690488024e+17,196029655075751.6,69563317724009.484,826452848322757.8,2.707431466010275e+16,1.2456665685359872e+17,3.1589603842178492e+16
57.27499949325607,4562580641114461.0,2.1129470620653286e+17,196035358828641.47,78016084155734.48,926877394673541.8,3.0371423164269524e+16,1.3971260611953264e+17,3.5447167443958024e+16
64.00249944258168,4562807974447645.0,2.359424974707922e+17,196045125688946.72,87308396325613.78,1037276459062338.1,3.399787607632054e+16,1.5637094215403674e+17,3.9690241284910024e+16
71.40274938683986,4563126393190350.0,2.6305156764352173e+17,196058806178767.75,97522973888755.72,1158632850974848.8,3.79865110986813e+16,1.746922374608477e+17,4.4357478059760184e+16
79.54302432552385,4563534541244988.0,2.928672173310323e+17,196076342018575.47,108750555165588.83,1292024657688893.0,4.237343138684047e+16,1.9484199865574912e+17,4.9491401192324424e+16
88.49732675807624,4564032835611067.0,3.2565911062734394e+17,196097751113645.4,121090645617133.92,1438634138981614.8,4.719832788202237e+16,2.1700213104678096e+17,5.513879632721633e+16
98.34705943388387,4564623229493875.0,3.6172367558965786e+17,196123117375309.72,134652330336368.95,1599757382879527.8,5.250483307048574e+16,2.4137254392535968e+17,6.135114253372762e+16
109.18176537727226,4565309056023353.0,4.013867374737323e+17,196152584005806.1,149555154709687.84,1776814771903453.8,5.8340909130001624e+16,2.6817290968717104e+17,6.818508708991742e+16
121.09994191499949,4566094931210568.0,4.450064064402328e+17,196186349328433.38,165930077375735.53,1971362308962008.8,6.4759273683229544e+16,2.976445908075287e+17,7.570296828259702e+16
134.20993610649944,4566986701691038.0,4.929762433030591e+17,196224664542042.72,183920499491845.22,2185103850679739.2,7.181786665541563e+16,3.300527497057503e+17,8.397339122548869e+16
148.6309297171494,4567991427434952.0,5.457287288687725e+17,196267832977994.9,203683374086439.34,2419904293218247.5,7.958036203035496e+16,3.656886576346005e+17,9.307186227609909e+16
164.49402268886433,4569117392758963.0,6.037390645120737e+17,196316210573126.4,225390398899039.1,2677803751205436.0,8.811672861371426e+16,4.048722199021756e+17,1.0308148824274875e+17
181.94342495775078,4570374141155444.0,6.675293338421491e+17,196370207366096.34,249229295552057.62,2961032763802892.5,9.750384424599931e+16,4.4795473594981965e+17,1.1409374723845643e+17
201.13776745352587,4571772530993466.0,7.37673057631196e+17,196430289890503.8,275405177117349.25,3272028552704511.5,1.0782616825757562e+17,4.9532191404581126e+17,1.2620933877710387e+17
222.25154419887846,4573324810250627.0,8.148001765879578e+17,196496984385722.12,304142005084837.8,3613452344369887.5,1.1917647732349454e+17,5.473971615850473e+17,1.3953912153532672e+17
245.47669861876633,4575044709251784.0,8.99602499048095e+17,196570880781400.4,335684135350763.5,3988207752344550.5,1.3165667025395323e+17,6.04645173181381e+17,1.5420514813503427e+17
271.024368480643,4576947551008809.0,9.928396531950409e+17,196652637438226.44,370297951049494.94,4399460194280167.5,1.4537864764343152e+17,6.675758398675031e+17,1.703418073503282e+17
299.1268053287073,4579050316264592.0,1.0953455868423336e+18,196742983942380.53,408273572157885.75,4850657224051421.0,1.6046526951466006e+17,7.367485017494175e+17,1.88097091481839e+17
330.03948586157804,4581372048378356.0,1.208035655170509e+18,196842738502227.97,449926668360668.94,5345550097110818.0,1.770514162881716e+17,8.127765800930638e+17,2.076339672369224e+17
364.0434344477359,4583933611823178.0,1.3319143524358543e+18,196952797571146.38,495600278763408.94,5888215417787069.0,1.9528511429816822e+17,8.963325902882157e+17,2.2913194574352506e+17
401.44777789250946,4586758169919588.0,1.468083727959302e+18,197074156374138.12,545666740031887.9,6483078084453411.0,2.1532879401505456e+17,9.881535907898491e+17,2.5278876600362086e+17
442.5925556817604,4589871308143313.0,1.6177525427444147e+18,197207914205670.8,600529611748405.9,7134934206499527.0,2.3736064308343997e+17,1.089047075134435e+18,2.7882228148594275e+17
487.8518112499365,4593301264974868.0,1.7822462189769948e+18,197355284348234.88,660625610434598.9,7848974132438720.0,2.6157608071232003e+17,1.1998973384756524e+18,3.074725434968296e+17
537.6369923749302,4597079187452604.0,1.9630176368438292e+18,197517605052318.28,726426511013707.5,8630805100276007.0,2.881893584516882e+17,1.3216723420266995e+18,3.3900410796164544e+17
592.4006916124232,4601239413712930.0,2.161658833683383e+18,197696351675881.94,798440972416976.6,9486472997188318.0,3.174352956441274e+17,1.45543109704431e+18,3.737085912599506e+17
652.6407607736655,4605819785169233.0,2.3799136601560064e+18,197893150097286.2,877216233600910.0,1.0422482591709272e+16,3.4957115778852954e+17,1.6023315866861673e+18,4.1190750392074195e+17
718.9048368510321,4610861991169438.0,2.619691446672742e+18,198109791523689.8,963339614124778.9,1.1445815457792344e+16,3.848786858085994e+17,1.7636392393171054e+18,4.539553946924335e+17
791.7953205361354,4616411949230444.0,2.8830817304531236e+18,198348248828003.2,1057439739563131.9,1.2563944645406266e+16,4.236662837375533e+17,1.9407359603686925e+18,5.002433417638568e+17
871.9748525897489,4622520224248714.0,3.1723700889391437e+18,198610694560489.06,1160187396342561.0,1.378484496604471e+16,4.662713715467167e+17,2.1351297212923955e+18,5.512028328188333e+17
960.1723378487239,4629242490418263.0,3.4900551184568735e+18,198899520795303.7,1272295903121650.0,1.5116997553986822e+16,5.130629086802593e+17,2.3484646930384164e+18,6.073100812698852e+17
1057.1895716335964,4636640039938975.0,3.838866587504315e+18,199217360987392.75,1394520866719804.2,1.6569387136986922e+16,5.6444409221488166e+17,2.5825318973136696e+18,6.690908325711302e+17
1163.9085287969563,4644780342966680.0,4.2217847812905247e+18,199567114031026.16,1527659170150457.2,1.815149020688716e+16,6.208552313259864e+17,2.8392803310131195e+18,7.371257221173844e+17
1281.299381676652,4653737663638713.0,4.642061037517878e+18,199951970727619.62,1672547019054483.8,1.987325202765359e+16,6.827767967715941e+17,3.120828496974916e+18,8.120562550902957e+17
1410.4293198443174,4663593737392329.0,5.103239452160988e+18,200375442887039.62,1830056851581702.0,2.1745050165218116e+16,7.50732640235206e+17,3.429476246782088e+18,8.945914889466058e+17
1552.4722518287492,4674438515173014.0,5.609179707352578e+18,200841395302846.2,2001092896731704.8,2.3777641984444924e+16,8.252933734005462e+17,3.767716807818716e+18,9.85515511341653e+17
1708.7194770116243,4686370980483907.0,6.164080940564612e+18,201354080857169.1,2186585149013685.5,2.5982093353303252e+16,9.070798903287841e+17,4.138248826186553e+18,1.0856958204856108e+18
1880.5914247127869,4699500045535357.0,6.772506534145409e+18,201918179024152.25,2387481515272505.5,2.8369685649604664e+16,9.967670087943908e+17,4.543988208303375e+18,1.196092731658215e+18
2069.6505671840655,4713945532980739.0,7.439409655993838e+18,202538838050616.3,2604737885593101.0,3.095179811622274e+16,1.0950871963822307e+18,4.988079485870694e+18,1.3177699533680494e+18
2277.615623902472,4729839249822114.0,8.170159324791567e+18,203221721096818.75,2839305888059148.5,3.373976270064732e+16,1.2028343349741417e+18,5.473906360201299e+18,1.4519065000564992e+18
2506.3771862927197,4747326159973912.0,8.97056670594818e+18,203973056616064.38,3092118111370683.5,3.674468879816586e+16,1.32086746231554e+18,6.005101001429744e+18,1.5998101360767726e+18
2758.0149049219917,4766565661592850.0,9.846911266603241e+18,204799693235593.97,3364070625344592.5,3.9977255859265816e+16,1.4501144111416591e+18,6.585551584761863e+18,1.7629325788602834e+18
3034.816395414191,4787732974495479.0,1.0805966329379645e+19,205709159367383.38,3656002703325997.0,4.344747269456584e+16,1.5915752442781215e+18,7.219407438699182e+18,1.942886728870583e+18
3339.2980349556105,4811020641626126.0,1.1855023465324304e+19,206709727719105.97,3968673759260808.0,4.7164403594763304e+16,1.746325357556334e+18,7.911081058484264e+18,2.1414662415603154e+18
3674.227838451172,4836640146383889.0,1.300191505761345e+19,207810484782934.84,4302737662453226.0,5.1135863160076376e+16,1.9155180905731456e+18,8.665246101739655e+18,2.3606678138469714e+18
4042.6506222962894,4864823644370895.0,1.4255034251274213e+19,209021405240410.16,4658714791058366.0,5.536808407757138e+16,2.1003866474828477e+18,9.486830333095494e+18,2.6027166267776394e+18
4447.915684525919,4895825803391159.0,1.5623351384033516e+19,210353431018216.5,5036962435630675.0,5.986536504958813e+16,2.3022450852962289e+18,1.0381002322280686e+19,2.8700954697369544e+18
4893.707252978511,4929925738792098.0,1.7116425875191484e+19,211818554440244.75,5437644467808139.0,6.462970967807537e+16,2.5224880747167427e+18,1.1353150528982088e+19,3.1655781730535537e+18
5384.077978276362,4967429021823001.0,1.874441244156027e+19,213429904516690.56,5860701542465561.0,6.966047130200283e+16,2.762589077545904e+18,1.2408853233054695e+19,3.492268099188913e+18
5923.485776103998,5008669725716702.0,2.051806042394814e+19,215201834853733.88,6305823492693754.0,7.495402343082582e+16,3.0240965144404915e+18,1.3553837598339226e+19,3.8536425926843356e+18
6516.834353714399,5054012456573999.0,2.244870496069239e+19,217150010910032.53,6772425983476976.0,8.050348025403243e+16,3.30862741686811e+18,1.4793926003705788e+19,4.253604471413553e+18
7169.5177890858395,5103854292460111.0,2.454824875799767e+19,219291493309237.56,7259633876191416.0,8.62984963131238e+16,3.6178579675252946e+18,1.613496765151985e+19,4.696541862977428e+18
7887.469567994424,5158626522716376.0,2.6829133308274844e+19,221644812568376.75,7766274070253703.0,9.232517818589941e+16,3.953510235096905e+18,1.7582753392247706e+19,5.187397957338788e+18
8677.216524793868,5218796038346764.0,2.9304298632523637e+19,224230028834216.56,8290880761246252.0,9.856614313473274e+16,4.3173343041806735e+18,1.914291171155165e+19,5.73175256682809e+18
9545.938177273256,5284866171199137.0,3.1987131014092878e+19,227068767936565.97,8831716000890292.0,1.0500075909392382e+17,4.711084893634818e+18,2.0820783948086485e+19,6.335917762337561e+18
10501.531995000581,5357376709981967.0,3.489139880034765e+19,230184222073695.75,9386808061528746.0,1.1160559590667942e+17,5.136491450304953e+18,2.262127706784839e+19,7.007050317294071e+18
11552.68519450064,5436902752088620.0,3.8031177229930635e+19,233601100477613.84,9954009329080958.0,1.1835510857119198e+17,5.595220641903625e+18,2.454869296770728e+19,7.753283998566978e+18
12708.953713950705,5524051905342395.0,4.142076447118682e+19,237345509182962.16,1.0531074055714102e+16,1.2522255681027886e+17,6.088830056984872e+18,2.6606533668143686e+19,8.583885717777736e+18
13980.849085345777,5619459306551694.0,4.5074592669000835e+19,241444736994628.66,1.1115754542291908e+16,1.3218114446986549e+17,6.618712038834449e+18,2.8797283565591507e+19,9.509439261519167e+18
15379.933993880357,5723779724201657.0,4.900713987280633e+19,245926916174836.44,1.1705911768631904e+16,1.3920533200877726e+17,7.186026602392264e+18,3.1122171051055886e+19,1.0542061268940415e+19
16918.927393268394,5837675925402975.0,5.323285126427441e+19,250820522624035.72,1.2299633693815136e+16,1.4627224217845136e+17,7.791622739392092e+18,3.3580914547757765e+19,1.1695653604804127e+19
18611.820132595236,5961802369497710.0,5.776608111198601e+19,256153675272235.97,1.2895351379380062e+16,1.5336304250559382e+17,8.435947961172332e+18,3.6171461252755493e+19,1.2986195548128506e+19
20474.00214585476,6096783255125303.0,6.262107025978293e+19,261953192868458.06,1.349194028290711e+16,1.604641547597513e+17,9.118946887657022e+18,3.888973131818674e+19,1.4432077222448474e+19
22522.40236044024,6243184040995007.0,6.781197750334835e+19,268243370371212.9,1.4088792085504148e+16,1.6756811781410198e+17,9.839951196769538e+18,4.172938575921572e+19,1.6054472210051977e+19
24775.642596484264,6401475872441564.0,7.33529865662085e+19,275044450541352.28,1.4685841973587186e+16,1.746739247370747e+17,1.0597565461826542e+19,4.468164254098002e+19,1.787774227636823e+19
27254.206856132692,6571992971349436.0,7.925851299056085e+19,282370793214053.44,1.5283538125193014e+16,1.8178667629198534e+17,1.138955639913393e+19,4.77351705685126e+19,1.9929861444732613e+19
29980.627541745966,6754884044885528.0,8.554353632823498e+19,290228787599611.8,1.5882744780946122e+16,1.8891644755402426e+17,1.2212756639068928e+19,5.087609284308412e+19,2.2242842540914487e+19
32979.69029592056,6950060083628097.0,9.222408159917331e+19,298614609466983.94,1.6484577712289972e+16,1.960763521351346e+17,1.3062997634357821e+19,5.408812438077499e+19,2.485314997950011e+19
36278.65932551262,7157142312283439.0,9.931786912598098e+19,307511984894580.1,1.7090180321267188e+16,2.0327989991202838e+17,1.3935088404680092e+19,5.735285610052396e+19,2.7802089886246556e+19
39907.525258063884,7375415138169075.0,1.0684514291267153e+20,316890168755467.56,1.7700458415631228e+16,2.1053786023647776e+17,1.4822855852927584e+19,6.0650176608252535e+19,3.1136179827532456e+19
43206.49428765594,7566960338862456.0,1.1348195864035757e+20,325119989389021.3,1.821887642647697e+16,2.16702531066828e+17,1.5578100141885866e+19,6.343325354759193e+19,3.422779146305838e+19
46835.36022020721,7767911988652596.0,1.2055915442043612e+20,333753962989068.44,1.8748239703539948e+16,2.2299661372067158e+17,1.6345774356657316e+19,6.624827440828964e+19,3.7715259136113074e+19
50134.329249799266,7943486031637594.0,1.2682613888798843e+20,341297578573146.06,1.9201915559964576e+16,2.2839037699601043e+17,1.699817581266964e+19,6.863034221479845e+19,4.094174378435412e+19
53763.19518235053,8126720600870655.0,1.3353925280817557e+20,349170333963844.0,1.9667970936314556e+16,2.3393098213023395e+17,1.766047434915148e+19,7.104454212108404e+19,4.457216149393874e+19
57062.16421194259,8286140630474684.0,1.3950722859035496e+20,356019889623516.06,2.0068939154150732e+16,2.386977174204965e+17,1.8222986570236977e+19,7.3093805440921625e+19,4.792302776210171e+19
60691.03014449385,8451796634569094.0,1.4592609571904319e+20,363137379509906.56,2.048182421824019e+16,2.4360606638470646e+17,1.8793689242160087e+19,7.517571200067579e+19,5.168379165159014e+19
63989.99917408591,8595429679218674.0,1.5165246010134007e+20,369308645569202.94,2.0837524279253036e+16,2.4783471179389046e+17,1.9278418570338193e+19,7.694902065596945e+19,5.514738390063444e+19
67618.86510663718,8744198520782816.0,1.578335353529629e+20,375700576850311.25,2.1204035878882116e+16,2.5219200986131683e+17,1.977027079491811e+19,7.875541391645978e+19,5.9025334696747246e+19
70917.83413622924,8872860505558602.0,1.6336457558195225e+20,381228609980989.4,2.151985085339638e+16,2.5594682211854934e+17,2.0188290725504025e+19,8.029962497435337e+19,6.258993912000725e+19
74546.70006878051,9005827866733839.0,1.693532758161551e+20,386941629277326.3,2.1845271976491296e+16,2.5981606435749213e+17,2.0612793105672552e+19,8.18771553545784e+19,6.657227325007367e+19
77845.66909837257,9120623517826092.0,1.747261520259888e+20,391873894108461.56,2.2125635299329988e+16,2.6314985205385325e+17,2.0973987329837863e+19,8.323066919919845e+19,7.0226707512187404e+19
81474.53503092384,9239103706292892.0,1.8055886910077308e+20,396964470585829.44,2.241451378857877e+16,2.6658515619846285e+17,2.134128677698402e+19,8.46175011633146e+19,7.430144542231041e+19
84773.5040605159,9341286734767032.0,1.858033119233121e+20,401354832637506.4,2.266336309019626e+16,2.6954473596590442e+17,2.165430136582327e+19,8.581170467952651e+19,7.803535513733852e+19
88402.36999306717,9446691044616612.0,1.91509123654903e+20,405883602281685.75,2.2919815065921504e+16,2.7259500683236883e+17,2.19731954185415e+19,8.703900310439657e+19,8.219155773541994e+19
91701.33902265923,9537559709104304.0,1.9664886553144e+20,409787840940421.3,2.3140754745187508e+16,2.7522318017093235e+17,2.2245479287114535e+19,8.809953051737691e+19,8.599554444448224e+19
95330.2049552105,9631302327587430.0,2.0225096615608277e+20,413815563962125.75,2.3368561344845584e+16,2.779332994429786e+17,2.2523496521590964e+19,8.919273699970274e+19,9.022338565610955e+19
99321.9574810169,9727398711769386.0,2.083575159782593e+20,417944421607374.9,2.360199019565942e+16,2.8071061324789235e+17,2.2805761310528926e+19,9.031722190230231e+19,9.492007481885055e+19
102950.82341356817,9809870107862826.0,2.1386725103468777e+20,421487874070318.1,2.3802265094150596e+16,2.8309377838496595e+17,2.304637165642191e+19,9.129128497123397e+19,9.92124670055706e+19
106942.57593937457,9894594756541558.0,2.1988272190719934e+20,425128142292785.9,2.4007966017212068e+16,2.855417862683983e+17,2.3291634370571313e+19,9.229569508450384e+19,1.0397552297693969e+20
111333.5037177616,9981116848938014.0,2.264510246199525e+20,428845642464131.25,2.4217995259084184e+16,2.880416152119757e+17,2.3540325797836587e+19,9.33293365683983e+19,1.0925869268075484e+20
