t(s),Total solute volume 1,Total retention volume 1,Total 1 volume 1,Total 2 volume 1,Total 3 volume 1,Total 4 volume 1,Total 5 volume 1,Total 6 volume 1
1.0,4979439179293902.0,5254691358970268.0,275252179676401.3,0.0,0.0,0.0,0.0,0.0
2.1,4956089896123740.0,9536443600669604.0,273958620090143.62,2217929658250.297,27968991593876.066,753908837005493.4,2897244335780763.5,625054990417329.6
3.3100000000000005,4906240315316147.0,1.4105578142527974e+16,271202319811239.84,4610427313463.328,58126759306389.234,1543297375452494.8,5998304528047035.0,1323796417281161.0
4.641000000000001,4876926910049274.0,1.911379447849342e+16,269581767767107.97,7222899068521.171,91060541789161.45,2408011621935570.5,9360958973292236.0,2100031764591670.2
6.105100000000002,4857898308045472.0,2.46250843279116e+16,268529852005531.6,10086919658013.367,127167299213019.88,3358952598395106.0,1.3040608943882718e+16,2961840406711793.5
7.7156100000000025,4845567952327115.0,3.0692058758664916e+16,267848230629107.0,13234073261858.293,166844147051576.5,4405038884690826.0,1.7077174719298598e+16,3916350751405934.0
9.487171000000004,4837492626176073.0,3.736951563614618e+16,267401828556016.06,16695517882735.688,210483549562094.7,5556054983305912.0,2.1509925512283304e+16,4971461618380145.0
11.435888100000005,4832068062390753.0,4.471748278059531e+16,267101959739615.47,20503483396907.945,258491735820811.34,6822570638316614.0,2.6380587214911556e+16,6136159686019192.0
13.579476910000007,4828324982409781.0,5.280219995659048e+16,266895042492318.38,24692649417557.18,311305904205361.9,8216133055249461.0,3.1734387340388904e+16,7420460982427053.0
15.937424601000009,4825675866618776.0,6.169674459528479e+16,266748599014518.72,29300851941435.203,369403065439785.25,9749385171202260.0,3.762068312922517e+16,8835547911842807.0
18.53116706110001,4823763486799751.0,7.148165173651258e+16,266642881949737.03,34369621022262.746,433306809434727.9,1.143622443504622e+16,4.409349986720913e+16,1.0393844635050368e+16
21.384283767210015,4822365784852471.0,8.22456035100361e+16,266565616059504.84,39944611785302.92,503592735517411.06,1.329194172404447e+16,5.121207136701243e+16,1.2109121670764742e+16
24.522712143931017,4821340991106398.0,9.408620358650867e+16,266508964389859.2,46076024711757.414,580893750562441.4,1.5333363344937172e+16,5.9041400819993896e+16,1.3996619690807112e+16
27.97498335832412,4820596163257206.0,1.0711084121888304e+17,266467789127219.94,52819049123259.57,665905660525606.1,1.7579003437409618e+16,6.7652859393220856e+16,1.6073189726219434e+16
31.772481694156536,4820068904877456.0,1.2143764930516266e+17,266438641012745.06,60234344379530.05,759393237707841.1,2.004923043477058e+16,7.712483486470195e+16,1.8357448877711716e+16
35.949729863572195,4819716510131939.0,1.3719656256965142e+17,266419159271028.97,68388566302423.0,862196858340585.2,2.2766449946914212e+16,8.7543440005635e+16,2.0869951523055296e+16
40.544702849929415,4819509357328424.0,1.545304836633752e+17,266407706410617.5,77354943978351.22,975239775452882.9,2.5755305991556784e+16,9.900328919778595e+16,2.3633376690862484e+16
45.59917313492236,4819426786480578.0,1.7359656647837466e+17,266403140338499.16,87213911470480.61,1099536084189772.6,2.90429024259175e+16,1.1160835123104546e+17,2.6672732898933044e+16
51.1590904484146,4819454464726259.0,1.9456762731519206e+17,266404668721987.8,98053798988277.78,1236199436962571.5,3.265904651646249e+16,1.2547288606487118e+17,3.0015582364459892e+16
57.27499949325607,4819582665492631.0,2.1763369582479168e+17,266411753861803.03,109971588299726.25,1386452568813691.5,3.663651674240473e+16,1.4072247344736248e+17,3.3692287058556372e+16
64.00249944258168,4819805122992743.0,2.4300371892979165e+17,266424049369067.7,123073737476036.52,1551637697223011.8,4.101135712490492e+16,1.5749514163985616e+17,3.7736279557969064e+16
71.40274938683986,4820118258018975.0,2.7090743225799885e+17,266441357367340.06,137477080370953.33,1733227864530374.0,4.58232005958054e+16,1.7594260509257587e+17,4.218436200932803e+16
79.54302432552385,4820520649322819.0,3.0159741502162976e+17,266463599270504.6,153309806531480.06,1932839294877151.2,5.111562416337709e+16,1.9623162075050355e+17,4.707703675774664e+16
88.49732675807624,4821012671534100.0,3.3535134576713363e+17,266490795766880.06,170712527498342.2,2152244840883219.0,5.693653889714422e+16,2.1854547370745626e+17,5.245887232685064e+16
98.34705943388387,4821596248958830.0,3.724744780166416e+17,266523053209016.66,189839435668088.66,2393388597989428.5,6.333861803948157e+16,2.4308560411599555e+17,5.837890852533782e+16
109.18176537727226,4822274692202381.0,4.133023565325365e+17,266560554582055.16,210859562037225.3,2658401766291652.0,7.037976685864424e+16,2.7007338853411565e+17,6.48911045646667e+16
121.09994191499949,4823052595691359.0,4.5820379676924666e+17,266603553838503.6,233958139210902.5,2949619840504926.5,7.81236381865607e+16,2.9975209018555923e+17,7.205483426788062e+16
134.20993610649944,4823935781332002.0,5.075841520359838e+17,266652372783433.94,259338076008640.03,3269601208099367.5,8.664019793567834e+16,3.3238899388777946e+17,7.993543277430226e+16
148.6309297171494,4824931278252058.0,5.618888949851515e+17,266707399954342.25,287221549805606.94,3621147233243268.5,9.600634526309755e+16,3.682777426471501e+17,8.860479961364611e+16
164.49402268886433,4826047331740695.0,6.216075422634865e+17,266769091115033.4,317851722372034.9,4007323899496512.0,1.0630659244804654e+17,4.077408941453553e+17,9.814206362536182e+16
181.94342495775078,4827293436688617.0,6.872779535164196e+17,266837971103865.7,351494584369089.3,4431485076634249.5,1.1763380997093923e+17,4.511327165667307e+17,1.0863431590995675e+17
201.13776745352587,4828680392384576.0,7.594910384146871e+17,266914636862539.88,388440932771711.0,4897297465851106.0,1.3009004272904134e+17,4.9884224446425075e+17,1.2017741779352634e+17
222.25154419887846,4830220376658442.0,8.388959079676689e+17,266999761534325.44,429008484250925.06,5408767262065420.0,1.4378740379435333e+17,5.51296616639055e+17,1.3287689164975142e+17
245.47669861876633,4831927038211193.0,9.262055090852396e+17,267094099567621.84,473544125881273.9,5970268551114334.0,1.5884905261198576e+17,6.089647193041658e+17,1.468489033543063e+17
271.024368480643,4833815606626844.0,1.0222027841288159e+18,267198492796945.25,522426302350518.8,6586573432144085.0,1.7541026504905184e+17,6.723611590885893e+17,1.622213461572545e+17
299.1268053287073,4835903020078701.0,1.1277474000233277e+18,267313877501999.22,576067536030138.2,7262883820079403.0,1.936196032303869e+17,7.420505916693165e+17,1.7913503686993107e+17
330.03948586157804,4838208071165217.0,1.243783094346421e+18,267441292468892.7,634917072691069.2,8004864838134449.0,2.1364019363206672e+17,8.186524329409832e+17,1.9774503649891274e+17
364.0434344477359,4840751446178754.0,1.371345690483158e+18,267581881160202.62,699463623035874.0,8818679422831164.0,2.356511127900817e+17,9.028459788012353e+17,2.1822212251863526e+17
401.44777789250946,4843556425670724.0,1.5115718253530788e+18,267736930441717.56,770238292037039.5,9711025317004832.0,2.598489465394404e+17,9.953759706916137e+17,2.4075435115687334e+17
442.5925556817604,4846648279713865.0,1.665708464434582e+18,267907837151674.06,847817395484576.5,1.068917062818951e+16,2.8644939443800166e+17,1.0970586193858323e+18,2.655489064702133e+17
487.8518112499365,4850055080089721.0,1.8351232417510656e+18,268096152997487.2,932825508964114.1,1.1760992349905312e+16,3.1568911233886214e+17,1.2087881304330179e+18,2.928340298872178e+17
537.6369923749302,4853807788786575.0,2.021315694792779e+18,268303589447077.94,1025938413897719.5,1.2935013588512948e+16,3.47827667488869e+17,1.331543754554225e+18,3.228612093690281e+17
592.4006916124232,4857940541293919.0,2.2259294528434678e+18,268532033388358.62,1127886010176828.2,1.4220440386236642e+16,3.831496722842521e+17,1.4663973879887726e+18,3.5590759359934125e+17
652.6407607736655,4862490958971665.0,2.4507654397771663e+18,268783564395838.28,1239455105479867.8,1.5627197007328564e+16,4.219670986751763e+17,1.61452174811989e+18,3.9227866634593594e+17
718.9048368510321,4867500493424087.0,2.6977961518432727e+18,269060473766357.12,1361491997221108.5,1.716595863030502e+16,4.646217844913568e+17,1.7771991444574515e+18,4.323112112997513e+17
791.7953205361354,4873014806312810.0,2.969181069051763e+18,269365285513740.0,1494904744348888.2,1.8848180153272724e+16,5.114881427299465e+17,1.955830859937254e+18,4.763766013951174e+17
871.9748525897489,4879084188202928.0,3.2672832552080753e+18,269700779521070.3,1640665004722686.5,2.068611954861975e+16,5.6297608427950656e+17,2.1519471503297457e+18,5.248844510777705e+17
960.1723378487239,4885764020313091.0,3.5946871960193684e+18,270070017064513.62,1799809289561103.0,2.269285389785451e+16,6.19534163595903e+17,2.367217860053904e+18,5.782866751447581e+17
1057.1895716335964,4893115283385752.0,3.9542179165235574e+18,270476368941786.12,1973439459527542.5,2.488228589788801e+16,6.816529553922287e+17,2.6034636403745987e+18,6.370820037469708e+17
1163.9085287969563,4901205118283353.0,4.3489614078155453e+18,270923546459820.53,2162722257656661.0,2.7269138259623884e+16,7.498686683267191e+17,2.862667740238417e+18,7.018210100683839e+17
1281.299381676652,4910107443333675.0,4.782286378018959e+18,271415635559284.97,2368887643030207.0,2.9868933024697596e+16,8.247669988156352e+17,3.1469883202006323e+18,7.731117152560824e+17
1410.4293198443174,4919903633883370.0,5.257867322936564e+18,271957134377763.1,2593225656750306.5,3.2697952417378336e+16,9.069872242746223e+17,3.4587712152303037e+18,8.516258445892899e+17
1552.4722518287492,4930683269967750.0,5.779708886980234e+18,272552994578095.9,2837081519657404.0,3.5773177442612704e+16,9.972265300773106e+17,3.800563041765076e+18,9.38105819911014e+17
1708.7194770116243,4942544958447563.0,6.352171453910616e+18,273208666792963.16,3101848631324589.0,3.9112200062087784e+16,1.0962445580438742e+18,4.1751245072204733e+18,1.0333725863276156e+18
1880.5914247127869,4955597236387520.0,6.979997868608968e+18,273930150560167.84,3388959114798144.0,4.273310446147289e+16,1.2048681560117286e+18,4.5854437351227203e+18,1.138334386511302e+18
2069.6505671840655,4969959562826544.0,7.668341144495079e+18,274724049143857.75,3699871534919686.5,4.665431270853606e+16,1.3239962976122614e+18,5.034749364914843e+18,1.2539966141125373e+18
2277.615623902472,4985763406379687.0,8.422792955217782e+18,275597629652876.56,4036055414499727.5,5.089439005193245e+16,1.4546051283252623e+18,5.526523120972376e+18,1.3814728994176622e+18
2506.3771862927197,5003153436260035.0,9.249412642816037e+18,276558888875759.12,4398972187957194.5,5.547180529752271e+16,1.5977530776705006e+18,6.064511469099059e+18,1.5219976062359022e+18
2758.0149049219917,5022288824244831.0,1.015475639674168e+19,277616625248184.5,4790052273436721.0,6.040464221296723e+16,1.7545859573928686e+18,6.652735889388306e+18,1.6769399500245921e+18
3034.816395414191,5043344664724431.0,1.114590616822518e+19,278780517347511.47,5210668020289208.0,6.571025885810332e+16,1.9263419409685074e+18,7.295501190534457e+18,1.8478199846617382e+18
3339.2980349556105,5066513519125203.0,1.2230497782136277e+19,280061209262124.3,5662102408706158.0,7.140489323864516e+16,2.1143562898541916e+18,7.997401171345544e+18,2.036326750560841e+18
3674.227838451172,5092007089495003.0,1.3416747594007837e+19,281470403100207.66,6145513552519662.0,7.75032158638152e+16,2.320065655642863e+18,8.76332079955248e+18,2.2443389319035901e+18
4042.6506222962894,5120058023612586.0,1.471347691445145e+19,283020958768487.9,6661895294984653.0,8.401783278450314e+16,2.545011743566289e+18,9.598433925768442e+18,2.4739484380547804e+18
4447.915684525919,5150921850282528.0,1.613013328924738e+19,284727000946911.5,7212034499835852.0,9.095874661267963e+16,2.790844070360369e+18,1.0508195382145343e+19,2.7274874067778796e+18
4893.707252978511,5184879038026668.0,1.7676807585185163e+19,286604032883881.44,7796466032175197.0,9.833278795353206e+16,3.059321487020277e+18,1.1498326132560214e+19,3.0075592285480755e+18
5384.077978276362,5222237162553403.0,1.9364245695875154e+19,288669056204008.5,8415426896518936.0,1.061430356300914e+17,3.352312062971861e+18,1.2574789947248794e+19,3.317074316909126e+18
5923.485776103998,5263333157359310.0,2.120385355800751e+19,290940695310651.5,9068811544759950.0,1.1438825094963192e+17,3.671790841199082e+18,1.3743759875001799e+19,3.659291505459601e+18
6516.834353714399,5308535606517756.0,2.3207694070692004e+19,293439324119910.94,9756130964535374.0,1.2306235879897773e+17,4.0198348725117537e+18,1.501157258847575e+19,4.0378661450103685e+18
7169.5177890858395,5358247017777406.0,2.538847445743913e+19,296187191705613.9,1.0476478771340868e+16,1.3215401609746074e+17,4.398614820310911e+18,1.6384668494716414e+19,4.456906213333528e+18
7887.469567994424,5412905985812983.0,2.775952262714854e+19,299208541871673.1,1.1228508097198048e+16,1.4164631534935061e+17,4.810382294429188e+18,1.7869515350543081e+19,4.921038044202004e+18
8677.216524793868,5472989117753751.0,3.0334751209685815e+19,302529719583311.4,1.2010423511302052e+16,1.515166766752598e+17,5.257451924557526e+18,1.9472513024904307e+19,5.435483641200089e+18
9545.938177273256,5539012543518359.0,3.3128608204357796e+19,306179254447081.1,1.2819992413785188e+16,1.6173698438175158e+17,5.742177023124346e+18,2.119987704170118e+19,6.006151970938732e+18
10501.531995000581,5611532769325487.0,3.6156013636279443e+19,310187907883342.94,1.3654580177994914e+16,1.722740221574694e+17,6.266917520462757e+18,2.3057498666233094e+19,6.63974712657075e+18
11552.68519450064,5691146544213349.0,3.943228232784681e+19,314588665740757.06,1.4511212610133138e+16,1.830902522255224e+17,6.833998676678538e+18,2.505077954302485e+19,7.343896908097961e+18
12708.953713950705,5778489358213268.0,4.29730339164036e+19,319416655273335.7,1.5386668058192692e+16,1.9414496838422963e+17,7.445659052169883e+18,2.7184440153114e+19,8.127305168663528e+18
13980.849085345777,5874231929736172.0,4.6794092698832495e+19,324708950968344.7,1.627759898837552e+16,2.0539582132918838e+17,8.103985832552929e+18,2.9462300900737274e+19,8.999933604344133e+18
15379.933993880357,5979074141164878.0,5.0911381754207126e+19,330504239321461.3,1.7180680425934504e+16,2.1680068439894218e+17,8.81083616993153e+18,3.188703900297162e+19,9.973215638098602e+18
16918.927393268394,6093735523571350.0,5.534081823512046e+19,336842292862340.0,1.8092778313407476e+16,2.2831977322261885e+17,9.567743007310666e+18,3.4459925047083024e+19,1.1060307051374303e+19
18611.820132595236,6218941429256977.0,6.0098219684519666e+19,343763205823208.3,1.9011126881918664e+16,2.3991788302220288e+17,1.037580482630908e+19,3.718054871061039e+19,1.227637443306077e+19
20474.00214585476,6355403973078263.0,6.519923471442547e+19,351306340652745.7,1.9933499725574764e+16,2.5156655179517126e+17,1.1235559978969836e+19,4.00465485365262e+19,1.3638919437094867e+19
22522.40236044024,6503796974210756.0,7.06593152155305e+19,359508942908377.4,2.0858355749814636e+16,2.6324591314246096e+17,1.2146848482567018e+19,4.305336710591645e+19,1.5168132052237355e+19
24775.642596484264,6664724510363036.0,7.649375113202128e+19,368404403086493.94,2.178493933929046e+16,2.7494597922094602e+17,1.3108667422960441e+19,4.619405754198457e+19,1.6887262119603147e+19
27254.206856132692,6838683334637066.0,8.271779220493661e+19,378020179227177.06,2.271331481097108e+16,2.866671028484128e+17,1.4119030220385243e+19,4.9459166168836415e+19,1.8822998694541636e+19
29980.627541745966,7026020180827808.0,8.934688323869088e+19,388375437001094.6,2.364431876799677e+16,2.984194116501588e+17,1.5174843983304139e+19,5.283670656601368e+19,2.1005854563337204e+19
32979.69029592056,7226885596912577.0,9.639703959234978e+19,399478497919210.44,2.457941978194282e+16,3.1022107908400186e+17,1.627182125077675e+19,5.631222529213513e+19,2.3470566186477433e+19
35706.110981533835,7405828802520063.0,1.0262105869292503e+20,409369781382429.75,2.5371381097140004e+16,3.2021433233297574e+17,1.7221939888225403e+19,5.929269338908154e+19,2.575302450360402e+19
38705.173735708435,7597135204167249.0,1.0926128921520554e+20,419944451645989.94,2.618022296445314e+16,3.30418564061789e+17,1.820776637742849e+19,6.23611378021346e+19,2.8327769168960836e+19
41431.59442132171,7767082670908853.0,1.151399662521918e+20,429338482554100.44,2.6874193476042124e+16,3.39172175138841e+17,1.9060823579914654e+19,6.4996332860976415e+19,3.0708567021532496e+19
43910.15868097014,7918269184253287.0,1.203624223099276e+20,437695481050279.75,2.7475249243817372e+16,3.467527585879157e+17,1.980198607970737e+19,6.727086961021585e+19,3.290698264750779e+19
46636.57936658341,8079470040808503.0,1.2597065557251387e+20,446606032644624.5,2.81010380543463e+16,3.546442038071605e+17,2.057348274498125e+19,6.962749744228865e+19,3.5378404067309355e+19
49115.143626231846,8222362171903712.0,1.3096391817104305e+20,454504550509576.25,2.864575810196961e+16,3.6151271896811085e+17,2.1243232367620334e+19,7.1665922343563305e+19,3.7655928116066845e+19
51368.38386227587,8349240380658277.0,1.3542172508270223e+20,461517882398975.94,2.9122706340060636e+16,3.6752627909701754e+17,2.182697420360375e+19,7.343687827127934e+19,3.9752412864118686e+19
53846.9481219243,8484341487105929.0,1.4023343114867809e+20,468985744515861.06,2.96242530362003e+16,3.738495275771271e+17,2.243684521267244e+19,7.528300544386053e+19,4.210115338429984e+19
56100.18835796833,8603986659176879.0,1.4453652777041443e+20,475599264577766.7,3.0064152181759716e+16,3.793953905202976e+17,2.2968196661689795e+19,7.689053686979687e+19,4.425925511030083e+19
58578.75261761676,8731082441274935.0,1.4918976034540166e+20,482624626654165.7,3.0527439955563104e+16,3.8523589853385914e+17,2.352314115191956e+19,7.856862582962225e+19,4.66730163183027e+19
60831.992853660784,8843449732962806.0,1.533578773888501e+20,488835857193168.44,3.0934323783663804e+16,3.9036536770980326e+17,2.4006722117916013e+19,8.00328618466624e+19,4.888766144718799e+19
62880.39306824626,8943039126024518.0,1.5709868190688002e+20,494340776807935.8,3.1293083725332936e+16,3.948882215816659e+17,2.442980791803946e+19,8.131462103342717e+19,5.091863427020352e+19
65133.633304290284,9048973521459316.0,1.6115870357944494e+20,500196425317964.4,3.1672934671086372e+16,3.996769698917092e+17,2.4873705511158858e+19,8.265932454771856e+19,5.318477444605833e+19
67182.03351887576,9142717596009080.0,1.6480688770472588e+20,505378241731313.56,3.2007857686439876e+16,4.0389946898844384e+17,2.526207819996581e+19,8.383906233169736e+19,5.5260191750550086e+19
69435.27375491979,9242299350958692.0,1.6877143715386357e+20,510882744715975.9,3.2362478977232636e+16,4.083704041890637e+17,2.5669594500189004e+19,8.507853960719578e+19,5.757281698121745e+19
71483.67396950527,9330335935322230.0,1.723378215695925e+20,515749076780864.44,3.2675187719675624e+16,4.123131435604002e+17,2.6026296455286026e+19,8.616806749484096e+19,5.968862320317306e+19
73736.9142055493,9423779595858098.0,1.7621804401205782e+20,520914293720534.6,3.3006342527204204e+16,4.164886191147787e+17,2.640074739206649e+19,8.73140128061365e+19,6.204384415832336e+19
75785.31442013477,9506340901761038.0,1.797121619184462e+20,525477977295369.56,3.329840697544997e+16,4.2017147942239814e+17,2.672871779427733e+19,8.832298210905783e+19,6.419696030983394e+19
78038.5546561788,9593930625119374.0,1.8351785690711733e+20,530319615297387.2,3.3607761281168664e+16,4.24072566845171e+17,2.707321049250315e+19,8.938521346113282e+19,6.659162837511466e+19
80086.95487076428,9671289355785306.0,1.8694807844784334e+20,534595724263549.4,3.388063750369895e+16,4.2751394490392365e+17,2.7375155908032057e+19,9.032190530277219e+19,6.877941676955156e+19
82340.19510680831,9753334093787292.0,1.9068784073426603e+20,539130860802188.5,3.4169716873716484e+16,4.311599005151498e+17,2.769252210201665e+19,9.130895949568462e+19,7.121073705422125e+19
84388.59532139379,9825775246795532.0,1.940615022114627e+20,543135148491935.2,3.442473382600373e+16,4.343765566450106e+17,2.797089817997414e+19,9.218063551826454e+19,7.3430798312357495e+19
