t(s),Total solute volume 1,Total retention volume 1,Total 1 volume 1,Total 2 volume 1,Total 3 volume 1,Total 4 volume 1,Total 5 volume 1,Total 6 volume 1
1.0,2608533823723230.5,2612274703608691.0,3740879885460.3955,0.0,0.0,0.0,0.0,0.0
2.1,3256124289413609.0,4647015740452026.0,4669584731288.427,222909161514.77014,1095692849255.939,22279851067704.05,465141987374869.56,897481425853790.6
3.3100000000000005,3549620501863059.0,6730235299549883.0,5090485571348.489,510183212122.2301,2507770597805.736,50999611551161.64,1064833697751394.5,2056673049003001.5
4.641000000000001,3714095943597430.5,8959209815949425.0,5326358652860.216,841189542109.4219,4134816831803.101,84099826019961.92,1756072120017087.0,3394639561288161.5
6.105100000000002,3817702546524729.5,1.137781139521088e+16,5474940165552.251,1212001081503.028,5957529945522.799,121190818276769.6,2530709092262583.5,4895564466954243.0
7.7156100000000025,3888079474947905.5,1.401769582483473e+16,5575867235913.75,1623235526091.137,7978948105301.818,162337709142532.62,3390093457983722.5,6562007131893251.0
9.487171000000004,3938482655968097.5,1.690754191324812e+16,5648150094476.245,2077320682403.0688,10211007404278.814,207787315854900.4,4339371737600228.0,8403963725643743.0
11.435888100000005,3976025423833141.0,2.0076130107505296e+16,5701989923594.151,2577662375929.9707,12670451885772.678,257885174816740.16,5385754733127009.0,1.0435514671543044e+16
13.579476910000007,4004848772912040.5,2.3553698470499444e+16,5743325294231.118,3128351821885.3276,15377395266059.04,313046506092302.56,6537910277805907.0,1.2673643841307016e+16
15.937424601000009,4027517856219716.5,2.7372706194715416e+16,5775834874438.932,3734061620859.3564,18354809853251.457,373746072237366.8,7805750782460137.0,1.5137826777449632e+16
18.53116706110001,4045701662059400.0,3.1568369516918668e+16,5801912148770.531,4400018849547.792,21628394452467.707,440515795779908.56,9200383015707248.0,1.7849938717921344e+16
21.384283767210015,4060530326501214.0,3.617910931270303e+16,5823177837566.591,5132014228552.536,25226619642706.695,513946047219905.94,1.073413467141216e+16,2.0834316455860936e+16
24.522712143931017,4072794920947631.0,4.124697116438209e+16,5840766410891.399,5936430586777.69,29180867949631.523,594688939709242.8,1.242062291962274e+16,2.4117906319155164e+16
27.97498335832412,4083064954590370.5,4.68180478898271e+16,5855494597980.316,6820283194287.516,33525632410685.215,683462903894148.9,1.4274849730379898e+16,2.773046889075963e+16
31.772481694156536,4091760467887126.5,5.294292130468023e+16,5867964775990.069,7791268483358.224,38298756436200.88,781058214158778.5,1.631331707886313e+16,3.170482755407549e+16
35.949729863572195,4099197885437867.0,5.9677133961068184e+16,5878630727289.163,8857819463981.3,43541706653820.34,888343319875899.4,1.8554158956105692e+16,3.607715564280362e+16
40.544702849929415,4105620097955674.0,6.708169876889839e+16,5887840779803.439,10029166989016.28,49299874598923.47,1006271924655081.6,2.1017288980034664e+16,4.088730088388538e+16
45.59917313492236,4111216739166549.0,7.522365309357634e+16,5895866885977.535,11315406435197.44,55622905136972.4,1135890803045084.5,2.37245633736442e+16,4.617914799926253e+16
51.1590904484146,4116138184008358.0,8.41766633903475e+16,5902924697495.734,12727569556521.18,62565050442620.49,1278348369556137.8,2.6699959607980524e+16,5.200102168410545e+16
57.27499949325607,4120505420481549.0,9.402168632662603e+16,5909187722435.03,14277701335118.543,70185548701523.586,1434904029278066.5,2.996977130778819e+16,5.840613313131929e+16
64.00249944258168,4124417146593123.0,1.0484769248354939e+17,5914797502943.753,15978941647696.566,78549026670994.28,1606938347587179.5,3.356282018770588e+16,6.5453074035841704e+16
71.40274938683986,4127954962610917.5,1.1675245902525157e+17,5919871061418.0,17845611504168.86,87725924938915.64,1795964080786890.0,3.75106858755259e+16,7.320636269882362e+16
79.54302432552385,4131187231780188.5,1.298434381301732e+17,5924506437129.007,19893303507727.676,97792944198892.28,2003638111108778.5,4.184795450912743e+16,8.173704752401317e+16
88.49732675807624,4134171994772287.5,1.442387084659372e+17,5928786865813.893,22138976034105.113,108833510122078.44,2231774328746371.8,4.661248697429102e+16,9.112337389510552e+16
98.34705943388387,4136959201675853.0,1.6006801754270528e+17,5932783980559.261,24601050429868.48,120938253441598.55,2482357500558023.5,5.184570758277006e+16,1.0145152116984894e+17
109.18176537727226,4139592445247553.5,1.77473923390387e+17,5936560297444.247,27299510280486.42,134205500650251.72,2757558159562059.0,5.759291386957627e+16,1.1281641734477322e+17
121.09994191499949,4142110325355966.5,1.9661304466693005e+17,5940171172280.231,30256001491908.055,148741769213594.84,3059748540979332.0,6.390360800738693e+16,1.2532263985133e+17
134.20993610649944,4144547537830768.5,2.1765742901416646e+17,5943666362122.128,33493931556490.484,164662259378930.22,3391519578816932.5,7.083185008298355e+16,1.3908541195723747e+17
148.6309297171494,4146935755468000.0,2.407960502310756e+17,5947091288711.911,37038565926157.125,182091332471283.53,3755698961144437.5,7.843663314110234e+16,1.5423170538367472e+17
164.49402268886433,4149304351033358.5,2.6623644562841533e+17,5950488075332.923,40917118882822.195,201162962961492.16,4155370221444817.5,8.678227945726384e+16,1.7090146102875334e+17
181.94342495775078,4151680999336371.0,2.9420650575985376e+17,5953896410240.334,45158835668185.24,222021148518612.03,4593892816712846.0,9.593885693167523e+16,1.8924894113153235e+17
201.13776745352587,4154092186224660.0,3.249564295884257e+17,5957354276606.262,49795061901972.26,244820258669171.38,5074923109128175.0,1.0598261377603698e+17,2.094442278421884e+17
222.25154419887846,4156563645596984.0,3.587608590378777e+17,5960898579237.243,54859295470556.234,269725298534336.03,5602436125750823.0,1.169964287647237e+17,2.3167488500922234e+17
245.47669861876633,4159120740527299.5,3.959212077896408e+17,5964565691141.663,60387215099641.12,296912059367002.06,6180747918161381.0,1.290702732075213e+17,2.561478020832734e+17
271.024368480643,4161788800824881.5,4.367682001098745e+17,5968391937622.491,66416678731786.05,326567122245386.3,6814538279450802.0,1.4230167943433698e+17,2.8309124140234746e+17
299.1268053287073,4164593426472128.5,4.816646364182544e+17,5972414031435.235,72987683613888.28,358887675304735.25,7508873497377419.0,1.5679620891965347e+17,3.12757112801802e+17
330.03948586157804,4167560764131287.5,5.3100840323082586e+17,5976669469324.41,80142278671133.31,394081098349625.06,8269228727532711.0,1.7266791116774608e+17,3.4542350252492595e+17
364.0434344477359,4170717762110211.5,5.852357460127176e+17,5981196897668.11,87924418323323.83,432364261685210.94,9101509456460256.0,1.9003976207633494e+17,3.81397486840906e+17
401.44777789250946,4174092407690713.0,6.448248243521234e+17,5986036452829.082,96379745423134.36,473962478709662.2,1.0012071389147032e+16,2.090440676405051e+17,4.2101826465419706e+17
442.5925556817604,4177713949449275.5,7.102995697054148e+17,5991230079983.129,105555289519993.47,519108044492741.44,1.1007737935342404e+16,2.2982281549278262e+17,4.6466064776374515e+17
487.8518112499365,4181613106060224.5,7.822338667577878e+17,5996821832562.479,115499065260355.73,568038285624303.8,1.209581428196569e+16,2.52527952842527e+17,5.127389523545179e+17
537.6369923749302,4185822262002659.5,8.612560801931969e+17,6002858152917.586,126259554540145.48,620993040608317.4,1.328409682185377e+16,2.77321564826503e+17,5.6571134082953555e+17
592.4006916124232,4190375649543464.5,9.480539493779167e+17,6009388133297.734,137885055183225.06,678211485755265.9,1.4580876460142654e+16,3.043759220714554e+17,6.240846692677048e+17
652.6407607736655,4195309515295373.0,1.0433798741543315e+18,6016463754710.935,150422878633630.3,739928219873909.6,1.5994934037391016e+16,3.338733603761987e+17,6.884199026631841e+17
718.9048368510321,4200662268513975.0,1.1480566156528237e+18,6024140099595.441,163918379676161.9,806368523335485.6,1.7535525793200706e+16,3.6600594885229715e+17,7.593381676957015e+17
791.7953205361354,4206474607067192.0,1.262983436825645e+18,6032475532471.744,178413802856481.5,877742714825591.2,1.9212356447656296e+16,4.0097489567017594e+17,8.375275211075319e+17
871.9748525897489,4212789615656466.0,1.3891427083871212e+18,6041531840801.011,193946933435765.7,954239544160169.8,2.1035537105435076e+16,4.389896328562334e+17,9.237505208003547e+17
960.1723378487239,4219652829367973.0,1.5276070071590525e+18,6051374326123.445,210549545819807.5,1036018584050274.2,2.3015524798035388e+16,4.802665135788239e+17,1.0188526964486304e+18
1057.1895716335964,4227112253966801.5,1.679546735680321e+18,6062071833162.012,228245649923169.66,1123201619996762.2,2.5163040087904656e+16,5.250270473678691e+17,1.1237720266288288e+18
1163.9085287969563,4235218332510988.5,1.8462382946371868e+18,6073696701943.871,247049546353367.75,1215863087997545.5,2.7488958786290416e+16,5.7349559121116154e+17,1.2395495399761692e+18
1281.299381676652,4244023845862329.5,2.0290728435988447e+18,6086324625123.907,266963715080825.88,1314019676721407.0,3.0004173515805892e+16,6.258964081364196e+17,1.36734116838433e+18
1410.4293198443174,4253583732533978.5,2.2295656912139517e+18,6100034389629.315,287976579743463.7,1417619296009240.8,3.2719420622238988e+16,6.824500006477553e+17,1.508430990301276e+18
1552.4722518287492,4263954811095714.5,2.4493663640954327e+18,6114907478563.226,310060211057789.06,1526529717781053.0,3.5645067865784404e+16,7.433686254672689e+17,1.6642460111149627e+18
1708.7194770116243,4275195386150177.5,2.6902694149115884e+18,6131027506138.144,333168057766660.7,1640527317789102.0,3.879085847441449e+16,8.088509000205062e+17,1.8363726346274573e+18
1880.5914247127869,4287364716843130.5,2.954226045702799e+18,6148479455470.358,357232821435786.56,1759286483849225.8,4.216560761568715e+16,8.790754219814111e+17,2.0265749836041236e+18
2069.6505671840655,4300522325191023.0,3.2433566433229143e+18,6167348686657.818,382164620809167.0,1882370401513381.8,4.577684825268615e+16,9.541933433601489e+17,2.2368152270138798e+18
2277.615623902472,4314727120499984.5,3.559964351479405e+18,6187719681115.671,407849620052565.44,2009224070592310.8,4.963042482990553e+16,1.0343198728805524e+18,2.469276065238119e+18
2506.3771862927197,4330036316215878.5,3.906549839534374e+18,6209674488239.024,434149319707013.7,2139170529316272.2,5.3730035437195304e+16,1.1195247278722944e+18,2.726385510385157e+18
2758.0149049219917,4346504117216674.0,4.2858274734430945e+18,6233290842858.67,460900725063166.0,2271411345453752.0,5.807672618401301e+16,1.2098216228446925e+18,3.010844074935809e+18
3034.816395414191,4364180159496972.0,4.700743150199318e+18,6258639927603.918,487917608417048.56,2405032448319803.0,6.2668345634739784e+16,1.3051569693544804e+18,3.3256544463539297e+18
3339.2980349556105,4383107691202989.5,5.154494124770824e+18,6285783764338.515,514993063007197.75,2539016291411521.5,6.7498972429577e+16,1.4053980730303406e+18,3.6741536764815273e+18
3674.227838451172,4403321494964028.0,5.650551237852605e+18,6314772234591.341,541903501013676.3,2672261120844886.0,7.255833569700056e+16,1.5103212494538816e+18,4.060047851812668e+18
4042.6506222962894,4424845567395682.0,6.192684042773378e+18,6345639751748.921,568414170471762.6,2803607752773828.0,7.783125548641402e+16,1.61960043921329e+18,4.487449134943254e+18
4447.915684525919,4447690593418300.0,6.784989427815854e+18,6378401638994.06,594286153478084.6,2931873718327956.0,8.329713896300195e+16,1.7327970780969252e+18,4.960914981889069e+18
4893.707252978511,4471851281284234.0,7.431924431049028e+18,6413050307487.927,619284662177406.1,3055893923067101.0,8.892957699968872e+16,1.8493521598205517e+18,5.485489251311953e+18
5384.077978276362,4497303659046953.0,8.138344040738412e+18,6449551379256.063,643188277576740.6,3174566125977506.0,9.46960942217086e+16,1.9685815975088161e+18,6.06674484139391e+18
5923.485776103998,4524002473830561.0,8.90954485457664e+18,6487839957499.604,665798595027831.0,3286898645924606.0,1.0055811224839234e+17,2.0896761196082685e+18,6.710827435165222e+18
6516.834353714399,4551878879495780.0,9.751315521299698e+18,6527817310493.682,686949573530699.8,3392056868645450.5,1.0647118914074784e+17,2.2117069904464448e+18,7.424499928573496e+18
7169.5177890858395,4580838642129567.0,1.0669994892174838e+19,6569348298092.852,706515765351819.2,3489404508857777.0,1.1238559582642552e+17,2.333638782263192e+18,8.215187185820579e+18
7887.469567994424,4610761129964573.0,1.1672538749852258e+19,6612259923181.1,724418562761956.0,3578535352641554.5,1.1824728025518424e+17,2.4543501977457444e+18,9.091020944546057e+18
8677.216524793868,4641499376292805.0,1.2766595842394767e+19,6656341421895.2,740629671680959.8,3659291524300140.0,1.2399925010287979e+17,2.5726635075111496e+18,1.0060885007867036e+19
9545.938177273256,4672881500235284.0,1.3960593720820447e+19,6701346301138.893,755171227108185.9,3731765291317579.5,1.2958337355061136e+17,2.687382498929099e+18,1.1134461328975798e+19
10501.531995000581,4704713729802754.0,1.5263834559658457e+19,6746996673930.861,768112299879595.8,3796283036899677.0,1.3494255500288829e+17,2.797337935337715e+18,1.2322278213254625e+19
11552.68519450064,4736785185043622.0,1.6686600748040032e+19,6792990118880.563,779561976505735.5,3853372143770099.5,1.400231907894505e+17,2.9014384493895035e+18,1.3635762595565625e+19
12708.953713950705,4768874442299055.0,1.8240269609308121e+19,6839009093937.292,789659660601284.0,3903713843067057.0,1.447777540634985e+17,2.998723653131333e+18,1.5087299115158188e+19
13980.849085345777,4800757715084664.0,1.993743619849288e+19,6884732668530.841,798563658517371.2,3948087162277066.0,1.4916730644574592e+17,3.088415213599927e+18,1.6690299385178667e+19
15379.933993880357,4832218274900905.0,2.179204281032058e+19,6929850033885.984,806439381407974.9,3987310500167540.5,1.5316369747030157e+17,3.1699609458235817e+18,1.8459285269020176e+19
16918.927393268394,4863056515694236.0,2.3819513690708283e+19,6974074936391.482,813448545656460.0,4022187681277356.0,1.567512029754608e+17,3.243066845653147e+18,2.0409989975262093e+19
18611.820132595236,4893099888200507.0,2.603689354939702e+19,7017159924369.596,819740555563071.9,4053464442967791.5,1.599273803551893e+17,3.3077126228951926e+18,2.255948022409997e+19
20474.00214585476,4922211832196725.0,2.84629888615313e+19,7058909157753.532,825446836756940.6,4081799314315827.5,1.6270298635710675e+17,3.3641477727666596e+18,2.4926301585515086e+19
22522.40236044024,4950298855569992.0,3.1118511608815698e+19,7099188560130.079,830678346924367.2,4107750191960056.0,1.6510090804830976e+17,3.4128674423360655e+18,2.7530647431848317e+19
24775.642596484264,4977315068306499.0,3.4026225967484166e+19,7137932320902.674,835525949394623.6,4131775226162644.5,1.671541858676324e+17,3.454570005350356e+18,3.0394550022090072e+19
27254.206856132692,5003263762742220.0,3.721109936412326e+19,7175145161520.241,840062920020334.5,4154244525581927.0,1.6890333669432118e+17,3.490100874375889e+18,3.3542090406699545e+19
29980.627541745966,5028196002631760.0,4.070046010642075e+19,7210900312074.898,844348654558508.2,4175458113141991.0,1.7039328806400512e+17,3.5203891092643154e+18,3.699962249542173e+19
32979.69029592056,5052206569302571.0,4.452416427459179e+19,7245333697714.425,848432670151016.0,4195665626899166.0,1.7167028779345856e+17,3.5463843406857037e+18,4.079600609591274e+19
36278.65932551262,5075427941517000.0,4.871477458974534e+19,7278635305209.773,852358203526837.9,4215084244506886.0,1.727791424720761e+17,3.569001161462378e+18,4.49628441367859e+19
39907.525258063884,5098023189969014.0,5.3307753503747465e+19,7311038993006.908,856165009260764.2,4233912776850171.5,1.7376106462691792e+17,3.5890765036082376e+18,4.953472052349695e+19
43899.277783870275,5120178713103179.0,5.8341671829478875e+19,7342812073719.534,859891256599254.0,4252341342969255.0,1.7465228890253443e+17,3.607342996127687e+18,5.454943679032389e+19
48290.20556225731,5142097632110930.0,6.385843298986907e+19,7374245841941.791,863574641484293.2,4270557141156360.0,1.7548348071893952e+17,3.6244184874030674e+18,6.004824741808637e+19
53120.22611848305,5163994439493236.0,6.9903511597352624e+19,7405647899791.082,867252942168563.0,4288747413078697.5,1.7627983801387824e+17,3.6408094579019213e+18,6.607609490099433e+19
58433.24873033136,5186091219388490.0,7.65262037633366e+19,7437336736506.615,870964262388086.2,4307100799598700.0,1.770617029954327e+17,3.656924437635541e+18,7.268184602908741e+19
64277.57360336451,5208615493404162.0,8.377988539991594e+19,7469638639171.138,874747159178439.0,4325808070777800.5,1.778454683673048e+17,3.673092992201917e+18,7.991853029898458e+19
70706.33096370097,5231799542287063.0,9.172227384289372e+19,7502886719921.509,878640781408117.5,4345062867846933.5,1.78644578200865e+17,3.6895862572277586e+18,8.784358000138664e+19
77777.96406007107,5255880935439137.0,1.0041568733717722e+20,7537421675321.833,882685079108195.9,4365062768576300.5,1.7947047265160928e+17,3.7066360588193623e+18,9.651906963950168e+19
85556.76046607818,5281103965184607.0,1.099272961665881e+20,7573593843233.911,886921097450839.9,4386010755726395.0,1.8033338804943565e+17,3.7244509436195753e+18,1.0601195022550678e+20
94113.436512686,5307721710748107.0,1.2032935834859653e+20,7611766162752.215,891391345030869.9,4408117044802784.5,1.812429815058868e+17,3.7432285975368443e+18,1.1639427192768656e+20
103525.78016395462,5335998519270388.0,1.3169943175076764e+20,7652317732208.944,896140218472249.0,4431601186376338.5,1.8220879078502938e+17,3.7631649431924224e+18,1.2774338662454834e+20
113879.3581803501,5366212764505372.0,1.4412055315518246e+20,7695647765400.911,901214469384780.9,4456694376649864.0,1.832405626249483e+17,3.7844606254964306e+18,1.401421201498028e+20
125268.29399838512,5398659807171067.0,1.5768137320860153e+20,7742179837006.373,906663701330050.0,4483641914859906.0,1.843484888268006e+17,3.8073256904008945e+18,1.5367890232177066e+20
137796.12339822366,5433655129548406.0,1.7247623438043873e+20,7792366377889.724,912540897130463.6,4512705811298931.0,1.855433853031259e+17,3.8319831618367227e+18,1.6844784113909445e+20
151576.73573804603,5471537647583240.0,1.8860517708449825e+20,7846693424962.525,918902975110996.0,4544167538023838.0,1.8683684071767216e+17,3.858672042217736e+18,1.8454872574670874e+20
166735.40931185064,5512673220600491.0,2.0617385709809897e+20,7905685654438.5625,925811378528432.4,4578330943683216.0,1.8824135255470998e+17,3.8876500843097083e+18,2.0208694094000544e+20
183409.95024303574,5557458385748777.0,2.252933554539659e+20,7969911737373.149,933332702742252.6,4615525354984677.0,1.897704614761497e+17,3.9191965443284675e+18,2.2117327416180608e+20
201751.94526733932,5606324345078355.0,2.4607986023824222e+20,8039990057502.194,941539364813443.8,4656108887975004.0,1.9143889002761306e+17,3.953615032956885e+18,2.4192359430267014e+20
221928.13979407327,5659741229675080.0,2.686541984023415e+20,8116594826405.253,950510319632627.9,4700471989415829.0,1.9326268950486608e+17,3.991236536620575e+18,2.6445838033608196e+20
244121.9537734806,5718222659496574.0,2.931411950284965e+20,8200462622732.412,960331825709046.4,4749041223739333.0,1.9525939548616912e+17,4.032422620872065e+18,2.8890207721596695e+20
268535.1491508287,5782330606968213.0,3.196688378275757e+20,8292399367051.634,971098261973700.6,4802283312276914.0,1.9744819419975523e+17,4.077568854983073e+18,3.1538225677381154e+20
295389.6640659116,5852680559786426.0,3.483672263564913e+20,8393287725786.312,982912994831938.8,4860709420977872.0,1.9985009875992646e+17,4.1271084403091436e+18,3.440285631211588e+20
324929.6304725028,5929946959032683.0,3.7936728902759626e+20,8504094909974.076,995889291452280.9,4924879676772577.0,2.0248813479841578e+17,4.181516031569396e+18,3.74971425641207e+20
357423.5935197531,6014868863129011.0,4.127992569752853e+20,8625880797903.115,1010151270983588.0,4995407871495357.0,2.0538753380191648e+17,4.2413117161790894e+18,4.083405286714181e+20
