t(s),Total solute volume 1,Total retention volume 1,Total 1 volume 1,Total 2 volume 1,Total 3 volume 1,Total 4 volume 1,Total 5 volume 1,Total 6 volume 1
1.0,5814614257372316.0,6799275496780043.0,984661239407722.4,0.0,0.0,0.0,0.0,0.0
2.1,8886350434500687.0,1.0463164867527486e+16,1504791818781362.0,142891190132.93243,2181002404054.3608,18000014881215.21,43033380417771.68,8665325352282.783
3.3100000000000005,1.1317994327569514e+16,1.3425535769166306e+16,1916535998473745.8,382137859221.88605,5820177022743.945,47164201241504.76,114547444594779.31,23091482404763.984
4.641000000000001,1.3454186369733506e+16,1.6086728236663486e+16,2278252605356418.0,715936801828.3939,10889589674696.135,86755213791364.84,212956690137022.66,42971831168619.734
6.105100000000002,1.542251796304658e+16,1.8597004444547664e+16,2611545898918494.5,1150579926643.322,17484134099078.28,137075166438795.89,338804805245678.56,68425896872359.64
7.7156100000000025,1.7286130494175854e+16,2.103279426311363e+16,2927107239130764.0,1696294757445.7217,25758005073383.89,198885069387228.8,493477123673943.3,99740036915016.73
9.487171000000004,1.9081368105687052e+16,2.3440393447313164e+16,3231090612167484.5,2366192662261.2324,35908895152840.17,273291734254180.7,679034220108053.9,137333687281339.58
11.435888100000005,2.0831059351999544e+16,2.5851456896031304e+16,3527361496062036.0,3175966272577.3813,48173431742013.96,361705169383807.1,898220151496709.1,181761329074587.94
13.579476910000007,2.2550293395438716e+16,2.828974597490165e+16,3818474893917664.0,4143855436101.593,62826637467183.82,465811713594557.56,1154478845364714.2,233716633682760.9
15.937424601000009,2.4249316875551336e+16,3.0774503403836156e+16,4106165841365346.0,5290740019625.635,80183304641193.23,587559346221672.5,1451953741299231.2,294033554737749.2
18.53116706110001,2.5935135675079732e+16,3.3322325722053876e+16,4391620627234811.0,6640305151536.288,100600473769934.52,729157736028520.1,1795484106319426.5,363686798469928.56
21.384283767210015,2.761245806047149e+16,3.5948294389672936e+16,4675636494018680.0,8219252217237.672,124480614212002.06,893091643024741.6,2190613695097576.8,443794630631268.06
24.522712143931017,2.9284273413614596e+16,3.866671292032337e+16,4958719634433098.0,10057540257925.098,152275273526513.5,1082143467274608.2,2643618325251726.5,535625265964809.6
27.97498335832412,3.095221904322976e+16,4.14916233788119e+16,5241147303807518.0,12188648187110.055,184489050239297.2,1299421094016602.0,3161551545217185.5,640606694114398.4
31.772481694156536,3.2616820038311788e+16,4.443719523348163e+16,5523008434698540.0,14649851175409.88,221683790779924.9,1548388864832904.2,3752304939058403.0,760339314624725.9
35.949729863572195,3.427765151184154e+16,4.751803964427986e+16,5804231109792318.0,17482505790139.096,264482930951411.9,1832900848122996.5,4424679911092899.0,896610826688571.5
40.544702849929415,3.5933452918350264e+16,5.074948123409196e+16,6084601919365661.0,20732338813877.375,313575907649917.56,2157236204534852.8,5188468905586264.0,1051413039791240.2
45.59917313492236,3.7582213082147416e+16,5.41478077559606e+16,6363780359014911.0,24449734651931.484,369722566192459.06,2526136607087665.5,6054544953837456.0,1226960453028848.2
51.1590904484146,3.922123826641399e+16,5.773051137197147e+16,6641310355459352.0,28690016204321.61,433757487674943.44,2944845669828036.5,7034959015811484.0,1425710560579215.0
57.27499949325607,4.084721191922376e+16,6.151653127594083e+16,6916630382700060.0,33513714240934.273,506594162540593.06,3419150305012826.5,8143044893650704.0,1650385898571810.8
64.00249944258168,4.245625248460307e+16,6.5526504954067976e+16,7189083250176726.0,38986820857359.67,589228943621960.5,3955423909434481.5,9393531665855472.0,1903997879519175.8
71.40274938683986,4.404397421841919e+16,6.978303384436584e+16,7457926399333098.0,45181023677296.45,682744726885799.1,4560671282537818.0,1.0802663710888834e+16,2189872482623752.2
79.54302432552385,4.560552656828026e+16,7.431096818713904e+16,7722338567714873.0,52173886722340.21,788313782513164.1,5242546460752302.0,1.238836730536428e+16,2511701615791918.5
88.49732675807624,4.713578321060355e+16,7.913771511099352e+16,7981451805590134.0,60049168030200.984,907202953733664.0,6009510426327585.0,1.4170231380417622e+16,2873486166290750.0
98.34705943388387,4.862926989528695e+16,8.429357351668712e+16,8234339241314446.0,68896823817158.516,1040773546180537.2,6870724479044178.0,1.616988370862958e+16,3279685822414118.5
109.18176537727226,5.008037120231556e+16,8.981209897837726e+16,8480050097511178.0,78813289957227.33,1190485956017158.0,7836201076347043.0,1.8410992578996708e+16,3735184777232421.5
121.09994191499949,5.148342759823268e+16,9.573050152012318e+16,8717626120368645.0,89901646286630.34,1357902242264355.5,8916836636677613.0,2.0919466366398556e+16,4245340909894483.5
134.20993610649944,5.283286584365254e+16,1.0209007873196891e+17,8946123657922767.0,102271832854376.98,1544689482803719.5,1.0124467018690688e+16,2.3723632898897264e+16,4816027997147549.0
148.6309297171494,5.412334365228369e+16,1.0893668629954566e+17,9164638151785608.0,116040932002780.1,1752624072526862.8,1.1471929169776784e+16,2.685443029582682e+16,5453680025343144.0
164.49402268886433,5.534990342958587e+16,1.1632124763958982e+17,9372330166607020.0,131333551500972.83,1983597474987685.8,1.2973128323323602e+16,3.034561483540682e+16,6165339858177949.0
181.94342495775078,5.6508130242092904e+16,1.243003039631738e+17,9568452136431542.0,148282352363400.06,2239624073407288.8,1.4643112826364814e+16,3.4233989117576724e+16,6958713214937180.0
201.13776745352587,5.75943077335798e+16,1.3293660575791576e+17,9752374764165684.0,167028769376882.34,2522851839320695.5,1.6498159276128716e+16,3.855965443314435e+16,7842228942199772.0
222.25154419887846,5.8605564286233176e+16,1.4229974644940933e+17,9923611770233334.0,187723973069788.97,2835576556328923.0,1.855587120825057e+16,4.336629194544787e+16,8825106709845771.0
245.47669861876633,5.954000065997064e+16,1.524668389517208e+17,1.0081841506109506e+16,210530117696765.3,3180260284239244.0,2.0835295124000964e+16,4.870147786791974e+16,9917433391783904.0
271.024368480643,6.039678986684834e+16,1.6352323604069056e+17,1.0226923867697738e+16,235621909683229.25,3559554607622797.5,2.335705806601533e+16,5.4617038236425576e+16,1.1130249486397166e+16
299.1268053287073,6.117624038766631e+16,1.7556329607638122e+17,1.0358911002704188e+16,263188514379686.4,3976328973278114.0,2.6143531149457812e+16,6.1169449068757016e+16,1.2475646980138776e+16
330.03948586157804,6.1879815209637576e+16,1.886911966402475e+17,1.0478050538308918e+16,293435796399796.1,4433704088419587.5,2.9219023328923056e+16,6.8420287625342216e+16,1.3966880053216054e+16
364.0434344477359,6.251010165039813e+16,2.0302180017664528e+17,1.058478047633294e+16,326588862012191.06,4935089949937482.0,3.261000915336542e+16,7.643674011410368e+16,1.561848997049599e+16
401.44777789250946,6.307074154707759e+16,2.1868157758140435e+17,1.0679717378293868e+16,362894908095014.7,5484228721661574.0,3.634544637444842e+16,8.52922394103407e+16,1.7446309241486954e+16
442.5925556817604,6.356625512426966e+16,2.3580959854670726e+17,1.076362654269153e+16,402625896941339.5,6085234553412323.0,4.045684377282913e+16,9.506684149934102e+16,1.946817115722237e+16
487.8518112499365,6.400194663946912e+16,2.5455859923671062e+17,1.0837406038962782e+16,446081971485421.0,6742645985936143.0,4.497899668205479e+16,1.0584826623667624e+17,2.170325568212644e+16
537.6369923749302,6.4383654834044e+16,2.750961402978033e+17,1.0902044450890436e+16,493594131478035.9,7461466020451745.0,4.995006591534581e+16,1.1773250179999906e+17,2.4172813145594308e+16
592.4006916124232,6.4717551559829e+16,2.9760587038049414e+17,1.095858678207925e+16,545527089181264.44,8247205714783612.0,5.541207393245066e+16,1.3082465369292586e+17,2.6900271609245476e+16
652.6407607736655,6.5009931743532104e+16,3.222889114402882e+17,1.100809889235309e+16,602281843945760.6,9105923506326348.0,6.14113482064991e+16,1.4523986834257766e+17,2.991145890505432e+16
718.9048368510321,6.526701985774553e+16,3.4936538210874016e+17,1.1051634727830096e+16,664297974408003.1,1.00442602936081e+16,6.799898859909857e+16,1.6110432186106646e+17,3.3234858794983096e+16
791.7953205361354,6.549480638288854e+16,3.79076074520998e+17,1.1090208628199382e+16,732055633480206.6,1.1069470004440454e+16,7.523135975645037e+16,1.7855628143491594e+17,3.690189268062265e+16
871.9748525897489,6.569892309336031e+16,4.116842982765278e+17,1.1124774207204816e+16,806077255133545.4,1.218944573811506e+16,8.317060767676757e+16,1.9774724153024275e+17,4.094722877570401e+16
960.1723378487239,6.588456105496538e+16,4.474779029303618e+17,1.115621046484549e+16,886928996656838.1,1.3412741801818534e+16,9.188520175610347e+16,2.188431367813337e+17,4.540912207463779e+16
1057.1895716335964,6.605643042167153e+16,4.867714878984453e+17,1.118531497718625e+16,975221939452922.4,1.4748591966877762e+16,1.0145050569545381e+17,2.4202563376048902e+17,5.032978913731329e+16
1163.9085287969563,6.621875718927538e+16,5.2990880624184576e+17,1.121280334408528e+16,1071613054723986.6,1.6206924032843654e+16,1.119493822440334e+17,2.6749350399219574e+17,5.575582238468921e+16
1281.299381676652,6.637530949075351e+16,5.772653666907835e+17,1.123931363942551e+16,1176805910263872.5,1.779837034419437e+16,1.2347283765042336e+17,2.954640803587106e+17,6.1738649297013464e+16
1410.4293198443174,6.6529444948027896e+16,6.292512365355688e+17,1.1265414427172e+16,1291551055831888.2,1.9534273326555264e+16,1.3612071181952058e+17,3.2617479831615936e+17,6.833504264230287e+16
1552.4722518287492,6.668417085433491e+16,6.863140465345285e+17,1.1291614950436556e+16,1416645982599337.0,2.1426684477501436e+16,1.5000241959333974e+17,3.598848220057175e+17,7.560768867060003e+16
1708.7194770116243,6.6842210167719016e+16,7.489421975282938e+17,1.1318376304943322e+16,1552934511483713.2,2.348835463056432e+16,1.6523774744193594e+17,3.968767533324874e+17,8.362582113915989e+16
1880.5914247127869,6.700606799576386e+16,8.176682666985549e+17,1.1346122696036516e+16,1701305428764436.5,2.5732712755848264e+16,1.8195770834066544e+17,4.374584193340573e+17,9.246593014742034e+16
2069.6505671840655,6.717809503859669e+16,8.930726090539533e+17,1.137525218093174e+16,1862690156504173.5,2.8173830087737892e+16,2.0030545585367898e+17,4.8196472960549766e+17,1.0221255613100504e+17
2277.615623902472,6.736054604402589e+16,9.757871464870245e+17,1.1406146566598776e+16,2038059220134907.2,3.0826365983196532e+16,2.2043725649504656e+17,5.3075959110444506e+17,1.1295918107357709e+17
2506.3771862927197,6.755563256452523e+16,1.0664993323977021e+18,1.1439180342935494e+16,2228417255893750.2,3.370549161078946e+16,2.4252351726507062e+17,5.842378622199279e+17,1.2480923113855995e+17
2758.0149049219917,6.7765570155709544e+16,1.1659562742446838e+18,1.147472867481856e+16,2434796286776760.5,3.682678735382686e+16,2.6674986274911197e+17,6.428273214135796e+17,1.3787720761085966e+17
3034.816395414191,6.799262066148308e+16,1.2749689893295974e+18,1.151317456223199e+16,2658246988412141.5,4.020610969755487e+16,2.9331825314760275e+17,7.069906178651818e+17,1.522899664071321e+17
3339.2980349556105,6.8239130469945336e+16,1.3944167605294986e+18,1.1554915318137002e+16,2899827668056123.0,4.385942339500678e+16,3.224481308606547e+17,7.77227162187748e+17,1.6818817062995267e+17
3674.227838451172,6.850756567965755e+16,1.525251548479908e+18,1.1600368523158638e+16,3160590694403508.5,4.780259492344274e+16,3.5437757852247885e+17,8.540749042222915e+17,1.857279459144767e+17
4042.6506222962894,6.8800545058802264e+16,1.6685024048051494e+18,1.1649977606506328e+16,3441566147937765.5,5.205114372631508e+16,3.893644653758009e+17,9.381119319943448e+17,2.0508277489544032e+17
4447.915684525919,6.912087156126733e+16,1.8252798173629125e+18,1.1704217182485344e+16,3743742517041083.5,5.661994857362122e+16,4.2768755125997165e+17,1.0299578109819619e+18,2.2644567528656422e+17
4893.707252978511,6.947156301543201e+16,1.9967799031447393e+18,1.176359824685392e+16,4068044350761177.5,6.152290766759847e+16,4.696475078813448e+17,1.1302745659011345e+18,2.5003171608161536e+17
5384.077978276362,6.985588243903767e+16,2.1842883475785088e+18,1.1828673309782398e+16,4415306902109831.0,6.677255297835723e+16,5.1556780503118566e+17,1.2397671884951247e+18,2.760809384229096e+17
5923.485776103998,7.027736826116914e+16,2.389183970780959e+18,1.1900041512987064e+16,4786247962985419.0,7.237962181996011e+16,5.6579539460778886e+17,1.3591835349885225e+18,3.0486176162754797e+17
6516.834353714399,7.073986454700316e+16,2.6129417822776673e+18,1.1978353747217262e+16,5181437309197288.0,7.835259196122842e+16,6.207011073679615e+17,1.489313457320241e+18,3.3667497002481734e+17
7169.5177890858395,7.124755111622909e+16,2.857135366588665e+18,1.2064317751604716e+16,5601264445432917.0,8.469719066527744e+16,6.806796562228353e+17,1.6309869954619456e+18,3.718583909253374e+17
7887.469567994424,7.180497321629711e+16,3.1234384239748357e+18,1.2158703137476368e+16,6045905665698152.0,9.14158929741927e+16,7.461491161266587e+17,1.7850714479209864e+18,4.10792384933518e+17
8677.216524793868,7.241707015706998e+16,3.4136252751101517e+18,1.2262346236124086e+16,6515291820215117.0,9.850743023490251e+16,8.175497257880529e+17,1.9524671392082908e+18,4.5390627166549357e+17
9545.938177273256,7.308920204675493e+16,3.729570127590993e+18,1.2376154624867318e+16,7009078594194535.0,1.05966336142824e+17,8.95341833928698e+17,2.134101722685967e+18,5.016857995676896e+17
10501.531995000581,7.382717241096547e+16,4.073244899984162e+18,1.2501110955739026e+16,7526621425674971.0,1.137825623429067e+17,9.800026924463589e+17,2.330921354348255e+18,5.546833860542599e+17
11552.68519450064,7.463725107679782e+16,4.4467154003858304e+18,1.2638276829103156e+16,8066958298533468.0,1.2194121331680349e+17,1.0720224350470975e+18,2.5438860045083105e+18,6.135232613091807e+17
12708.953713950705,7.552618333028003e+16,4.852135690934185e+18,1.2788794342320562e+16,8628802212286853.0,1.3042242642163582e+17,1.1718978945263485e+18,2.773952798070926e+18,6.789187920303876e+17
13980.849085345777,7.65011990245664e+16,5.291740497416836e+18,1.2953887630406002e+16,9210548118374444.0,1.392014718235407e+17,1.2801255282295562e+18,3.022066036079188e+18,7.516818265111999e+17
15379.933993880357,7.75700102791925e+16,5.7678355962066e+18,1.3134862474650838e+16,9810296743785476.0,1.482491082184716e+17,1.3971924421971133e+18,3.289140931593118e+18,8.327379447002752e+17
16918.927393268394,7.874079997256851e+16,6.282786203872441e+18,1.3333104352501e+16,1.0425898794073478e+16,1.5753224848274685e+17,1.5235658396202703e+18,3.5760452662003e+18,9.231430464499767e+17
18611.820132595236,8.002219756478866e+16,6.839003527949393e+18,1.3550074342411804e+16,1.1055021750514138e+16,1.670149694746064e+17,1.659680731267277e+18,3.883575410651148e+18,1.024105122898643e+18
20150.813531983273,8.118306951118122e+16,7.336468847685237e+18,1.3746636239533084e+16,1.159204240226761e+16,1.7510571784990397e+17,1.7813070023342323e+18,4.1568194642420915e+18,1.1167149151060257e+18
21843.706271310115,8.245480875628606e+16,7.874099741376922e+18,1.396197012519362e+16,1.2143549786161396e+16,1.8341059074992368e+17,1.9122057872768694e+18,4.4495769642017444e+18,1.220346070480731e+18
23382.69967069815,8.36073494632596e+16,8.355179386935921e+18,1.4157120730177136e+16,1.261637675736505e+16,1.9052718577938246e+17,2.0291168669011748e+18,4.709734681522077e+18,1.3154198057824899e+18
24781.78457923273,8.465306460165048e+16,8.786352468196073e+18,1.4334183169797858e+16,1.3024675551734604e+16,1.9666977015420378e+17,2.1336814327523328e+18,4.941295177498374e+18,1.4026941644679767e+18
26053.679950627804,8.560208771643512e+16,9.173351272821214e+18,1.4494873342483024e+16,1.337940064464388e+16,2.0200411784214435e+17,2.2273140037663004e+18,5.147773382613863e+18,1.4827834068953467e+18
27452.764859162384,8.664099505579942e+16,9.593189233686026e+18,1.4670782593472492e+16,1.3750423485124558e+16,2.0758085480713587e+17,2.328290639414989e+18,5.36992552984928e+18,1.5723300084802004e+18
28724.660230557456,8.758210727786853e+16,9.970137954988421e+18,1.4830132843908282e+16,1.4073558401981128e+16,2.1243567269594592e+17,2.418686988545536e+18,5.568238333577245e+18,1.654291161645938e+18
29880.928750007522,8.843528557403058e+16,1.030900342274722e+19,1.497459386905049e+16,1.4356469857368886e+16,2.166844816825721e+17,2.4997253878675016e+18,5.745470333509041e+18,1.7293568703876805e+18
31152.824121402595,8.936842361218725e+16,1.067725257646975e+19,1.5132593540215472e+16,1.4654857194323666e+16,2.2116363268944912e+17,2.5872173890003743e+18,5.936521903367956e+18,1.8131937770652513e+18
32309.09264085266,9.021346686492306e+16,1.1008388027193993e+19,1.52756767936084e+16,1.4916659972981926e+16,2.2509204558807725e+17,2.665646292933408e+18,6.107434950010959e+18,1.8898089350300398e+18
33360.24584035272,9.097935515032651e+16,1.1306476138098524e+19,1.540535737548407e+16,1.5147384845257322e+16,2.2855290541583498e+17,2.736044130354582e+18,6.260454821913576e+18,1.959892183043467e+18
34516.514359802786,9.181683981109155e+16,1.1630890528855822e+19,1.5547160517028984e+16,1.5392442166435904e+16,2.3222717422817235e+17,2.812136859133297e+18,6.425675518762167e+18,2.0380945342376172e+18
35567.66755930285,9.257523432211019e+16,1.1922994123441504e+19,1.5675571993595382e+16,1.560877454989948e+16,2.3546962448572976e+17,2.880434783258163e+18,6.573757118335832e+18,2.1094730164961603e+18
36523.261377030176,9.326253553446466e+16,1.218625659212821e+19,1.5791945870989816e+16,1.5800456816193192e+16,2.383417349068611e+17,2.941812405482386e+18,6.706550187720104e+18,2.174697325797207e+18
37574.41457653024,9.401409418969907e+16,1.2473135383347833e+19,1.591919968485291e+16,1.6005219297951014e+16,2.4140864266853923e+17,3.008232580738157e+18,6.850139920060137e+18,2.2474157267084933e+18
38530.008394257566,9.46947112553892e+16,1.2731736737621064e+19,1.6034441608895704e+16,1.618688286465367e+16,2.441287621200219e+17,3.0679206867791544e+18,6.979047832573661e+18,2.3137234204192814e+18
39398.73004673695,9.531152493930093e+16,1.2965043312291027e+19,1.6138880310994272e+16,1.634855031452647e+16,2.465488460822482e+17,3.121621051893945e+18,7.094815691400026e+18,2.3742587673499924e+18
40354.32386446428,9.598609957273554e+16,1.32195601244705e+19,1.6253098971367308e+16,1.652205952534691e+16,2.4914529430665574e+17,3.1797997028826696e+18,7.220159694839162e+18,2.441694174372555e+18
41223.04551694366,9.659706312643448e+16,1.344921652417744e+19,1.6356546985381848e+16,1.6676617044711926e+16,2.514575571329419e+17,3.2321399735213343e+18,7.33285280314735e+18,2.5031359632192983e+18
42178.63933467099,9.726486293410598e+16,1.3699793416284873e+19,1.6469618378211476e+16,1.6842669902438508e+16,2.5394095092050454e+17,3.2888468764518456e+18,7.454919756526572e+18,2.5715086811711724e+18
43047.36098715037,9.786952749500896e+16,1.3925929371409975e+19,1.657199971685558e+16,1.6990747266209918e+16,2.561549991940835e+17,3.339879248727627e+18,7.564706407189667e+18,2.633756441820535e+18
43837.10794394981,9.841746802244917e+16,1.4130155692495241e+19,1.6664776563215118e+16,1.7123130470769698e+16,2.581340094496402e+17,3.3858516692214144e+18,7.663442771030268e+18,2.690521867737466e+18
44705.829596429205,9.901677303128334e+16,1.4353196598026185e+19,1.6766250325608212e+16,1.7265912382174578e+16,2.602678523675339e+17,3.4357116806399795e+18,7.770459751946743e+18,2.7537083773328584e+18
45495.576553228646,9.955963271170467e+16,1.4554652630533413e+19,1.6858166792819952e+16,1.7393651427746254e+16,2.6217652072928134e+17,3.480621547932983e+18,7.866818094451432e+18,2.811225016487438e+18
46364.29820570804,1.0015312109138642e+17,1.4774698016184855e+19,1.6958655585160308e+16,1.7531525262884978e+16,2.64236033137191e+17,3.529329825575703e+18,7.971311609305059e+18,2.875177246227459e+18
47154.04516250748,1.0069057689604346e+17,1.497347309149753e+19,1.7049656984423564e+16,1.7654966459320084e+16,2.6607963827370608e+17,3.5732151253441495e+18,8.065433674633641e+18,2.933349452906239e+18
