t(s),Total solute volume 1,Total retention volume 1,Total 1 volume 1,Total 2 volume 1,Total 3 volume 1,Total 4 volume 1,Total 5 volume 1,Total 6 volume 1
1.0,3138139382654525.5,3150497763475772.5,12358380821239.398,0.0,0.0,0.0,0.0,0.0
2.1,4822182339095357.0,4842352803993364.0,18990346964042.484,104936576.03735906,672788037.5164121,20225712517.879635,501372578687.65674,657741918136.2487
3.3100000000000005,6177278119844175.0,6204756090979021.0,24326879130008.242,282245025.9285555,1809575001.5752628,54398163769.265,1346318560891.4875,1748283460157.9592
4.641000000000001,7388310950380859.0,7423321868175689.0,29096073991745.43,531988571.3070109,3410766539.0596213,102534833241.2704,2535412229192.6035,3272953985537.1265
6.105100000000002,8524221715915958.0,8567333046867209.0,33569429095420.58,860412486.5432086,5516403467.34702,165845530827.0865,4098641234824.189,5271038274231.658
7.7156100000000025,9619636978624258.0,9671658276338740.0,37883308031021.63,1277009903.4588807,8187349540.300495,246167493350.09583,6081402126914.024,7800955703749.531
9.487171000000004,1.0695092574290476e+16,1.075704836180828e+16,42118583406033.5,1793867141.1913915,11501094224.722498,345840058483.1139,8541446517210.364,10936622574722.36
11.435888100000005,1.1764192871308172e+16,1.1837323062727406e+16,46328830872032.875,2425583704.936704,15551239820.781412,467690126033.29663,11548538717339.234,14767154880313.686
13.579476910000007,1.2836716381393716e+16,1.2922490669628774e+16,50552559394569.84,3189417696.1302557,20448433749.513546,615061229031.924,15185179761700.824,19397849998315.59
15.937424601000009,1.3920155939316946e+16,1.4020297255090302e+16,54819276666804.25,4105555131.471876,26322095249.437378,791866740201.2576,19547921071266.566,24951823644711.246
18.53116706110001,1.5020559315069168e+16,1.513707436202723e+16,59152799541379.81,5197469239.551498,33322718933.671566,1002660749627.4563,24749105419193.156,31571961059687.13
21.384283767210015,1.6143022553234116e+16,1.6278238357824492e+16,63573196859544.05,6492359475.594007,41624689411.60389,1252724705061.0408,30918977173759.355,39422788803157.086
24.522712143931017,1.7291996641990076e+16,1.7448602092078754e+16,68097997148844.73,8021670080.454919,51429605819.209656,1548169838271.437,38208139432455.78,48691692393232.445
27.97498335832412,1.8471487017352976e+16,1.8652577958786412e+16,72742974291676.97,9821692997.171215,62970147046.68384,1896056344932.9387,46790343406414.71,59588775550328.95
31.772481694156536,1.9685186974616544e+16,1.9894313011712464e+16,77522672910737.33,11934262294.024574,76514523394.16023,2304530722685.7695,56865590680315.55,72344793996483.39
35.949729863572195,2.093656536776648e+16,2.1177776533840308e+16,82450753733429.52,14407547166.473152,92371559869.30232,2782982665171.845,68663519079754.06,87207131488409.45
40.544702849929415,2.222891622997742e+16,2.250680846822134e+16,87540188995867.47,17296947406.48978,110896435919.4823,3342222343389.022,82447030710527.55,104434602810757.92
45.59917313492236,2.356536953126611e+16,2.388512936642379e+16,92803304800258.9,20666088063.732136,132497060476.60199,3994677624370.5415,98516105640742.17,124292583943812.48
51.1590904484146,2.4948857321992132e+16,2.5316307678157384e+16,98251647777619.44,24587898452.88237,157640987057.8524,4754608701545.055,117211723885584.06,147050146915069.44
57.27499949325607,2.6382028087154156e+16,2.680367821676988e+16,103895647800918.62,29145745120.559914,186862674096.8449,5638334815758.172,138919789029280.34,172980349550587.44
64.00249944258168,2.786710430579788e+16,2.8350206790133812e+16,109744057036803.61,34434570274.47563,220770779650.245,6664464481869.304,164074908320168.16,202363849147159.2
71.40274938683986,2.940568351142434e+16,2.995830031849058e+16,115803166501838.0,40561968705.84012,260055061285.61536,7854117305254.265,193163839534413.72,235495066694731.25
79.54302432552385,3.099849055346477e+16,3.162956864282388e+16,122075830447196.64,47649120089.94561,305492348520.63153,9231122571946.861,226728371998038.2,272689622873347.84
88.49732675807624,3.2645096818400096e+16,3.33645523121255e+16,128560360630625.8,55831482421.51332,357950983907.13165,10822177831401.47,265367379238996.47,314291793558064.25
98.34705943388387,3.4343629262913216e+16,3.5162438144250216e+16,135249380470327.62,65259148361.76536,418393103398.2426,12656950070127.361,309737775940247.0,360681122604521.25
109.18176537727226,3.609049678396096e+16,3.702078957611877e+16,142128747476049.56,76096770540.48105,487874154041.7536,14768103013882.746,360554141017726.56,412277829725569.3
121.09994191499949,3.788016277859717e+16,3.893532063998058e+16,149176657582161.88,88522974330.18333,567539127065.5905,17191236592434.607,418586834069720.3,469547071037685.75
134.20993610649944,3.970499060625399e+16,4.089974061458315e+16,156363036579434.78,102729196537.52762,658615112226.8813,19964728503493.867,484658529395663.9,533002369541878.6
148.6309297171494,4.15551837467027e+16,4.290569169020762e+16,163649304468726.38,118917915180.4739,762399950649.2003,23129472974325.1,559639211076512.9,603208637119489.1
164.49402268886433,4.341883596724289e+16,4.494279561381706e+16,170988573042038.62,137300269282.21133,880246979806.877,26728518254892.66,644439805095022.9,680785202933125.4
181.94342495775078,4.528210004914818e+16,4.699881857294799e+16,178326310360771.44,158093109871.35083,1013546135140.1069,30806612332062.273,740004765029580.9,766409196832408.9
201.13776745352587,4.712947743581497e+16,4.90599574410463e+16,185601481433467.9,181515576250.0268,1163702011541.1602,35409676222451.17,847304076603611.4,860819553383964.0
222.25154419887846,4.894422571262006e+16,5.1111245135207816e+16,192748152922927.12,207785356364.46396,1332109902870.4966,40584236256195.54,967325306067326.4,964821832082193.9
245.47669861876633,5.070887558671239e+16,5.3137067718673944e+16,199697529069901.28,237114865137.0048,1520131318170.565,46376860778251.625,1101066487660275.0,1079294008269795.2
271.024368480643,5.240584310596023e+16,5.5121780106387304e+16,206380362671798.75,269707653247.9023,1729070976771.0876,52833661555970.22,1249530816050684.5,1205193381518732.0
299.1268053287073,5.40181154536448e+16,5.705039998043637e+16,212729655802997.16,305755428246.97144,1960157728771.4202,59999933657972.46,1413724255656423.2,1343564768517178.5
330.03948586157804,5.5529979584662104e+16,5.890935054197953e+16,218683529242231.7,345436111380.2421,2214532113004.7686,67920016345145.805,1594657259195555.8,1495550184310165.8
364.0434344477359,5.692775293423909e+16,6.0687212652125944e+16,224188100055595.16,388913345076.7837,2493243210265.1826,76637457588172.75,1793351749680014.2,1662400254007657.5
401.44777789250946,5.820046606816671e+16,6.237543731278161e+16,229200169916033.9,436337786605.9103,2797256940494.9663,86195552261627.0,2010854307072053.0,1845487620638055.5
442.5925556817604,5.934044077015957e+16,6.396896257001922e+16,233689501641976.3,487850358936.9783,3127476898809.5957,96638296036650.72,2248256066699011.0,2046322608224259.2
487.8518112499365,6.0343706188681544e+16,6.546667727556036e+16,237640457999101.62,543587379895.0642,3484777223985.8647,108011752973449.11,2506719161776121.0,2266571349526366.0
537.6369923749302,6.121020237855078e+16,6.687167983186937e+16,241052803245588.25,603687174259.7001,3870044965732.5845,120365777649757.45,2787508652508796.5,2508076487774411.0
592.4006916124232,6.194373588555692e+16,6.81912941859278e+16,243941528204389.0,668297431607.2323,4284227226979.5796,133755969196516.12,3092027865093537.5,2772880413217819.0
652.6407607736655,6.255167533477116e+16,6.943682750254015e+16,246335651451859.0,737582266243.7638,4728376393978.973,148245675423246.34,3421854067280310.5,3063250814953267.5
718.9048368510321,6.304440379889421e+16,7.062308188610115e+16,248276062689761.03,811727735611.2397,5203685485694.047,163907823113152.3,3778770637727565.5,3381708150455150.0
791.7953205361354,6.343457478513317e+16,7.176766223943691e+16,249812592754214.34,890944545289.1727,5711505472642.465,180826337803041.1,4164791563932046.5,3731054509796508.0
871.9748525897489,6.373624462308292e+16,7.289014870209946e+16,251000596884276.47,975466851463.5035,6253337586024.924,199096940977762.28,4582174401279424.0,4114403335437422.5
960.1723378487239,6.396397052225652e+16,7.40112198385593e+16,251897402796576.03,1065546460925.9639,6830796131521.438,218827174940587.56,5033418799214912.0,4535209596758115.0
1057.1895716335964,6.413196666607328e+16,7.51518177882832e+16,252558987313413.88,1161442267458.3909,7445540774496.994,240135596345366.7,5521249232891353.0,4997300322617805.0
1163.9085287969563,6.4253399133715704e+16,7.63324373000708e+16,253037199707149.22,1263405349994.9473,8099181021966.712,263150180330571.47,6048582373557528.0,5504905826387908.0
1281.299381676652,6.433987618232995e+16,7.757259842085026e+16,253377754390320.84,1371660669633.547,8793158905843.925,288006065425183.6,6618481171602384.0,6062692427526751.0
1410.4293198443174,6.4401158450526904e+16,7.889053202821678e+16,253619089674621.53,1486386631553.9375,9528617980625.191,314842823588968.25,7234098793735476.0,6675797866078734.0
1552.4722518287492,6.444508067679449e+16,8.030307473183486e+16,253792059493766.72,1607693866058.725,10306267314072.908,343801446979851.7,7898615768975084.0,7349870818411508.0
1708.7194770116243,6.44776492036145e+16,8.182574149852187e+16,253920317385642.22,1735604442380.4448,11126248249024.225,375021203246083.6,8615173017662409.0,8091115903921827.0
1880.5914247127869,6.450326262722253e+16,8.3472925727415e+16,254021185432658.22,1870032438623.6177,11988009854594.738,408636437372245.1,9386802087875080.0,8906345347219173.0
2069.6505671840655,6.452499820507394e+16,8.525816969709282e+16,254106782161564.25,2010766470040.735,12890196927118.328,444773312260619.8,1.0216352317384174e+16,9803038116815228.0
2277.615623902472,6.454491266285317e+16,8.719445253823731e+16,254185207149740.38,2157454543506.219,13830552899699.227,483546405880673.5,1.1106413238004096e+16,1.0789407016906436e+16
2506.3771862927197,6.456431919095523e+16,8.929445496399413e+16,254261631863251.78,2309591536741.3394,14805839575367.074,525055038061025.75,1.2059229706421912e+16,1.1874473965580698e+16
2758.0149049219917,6.458401818078491e+16,9.157077562830523e+16,254339208317947.97,2466509713504.7715,15811776321160.518,569379193029684.5,1.3076607154751832e+16,1.3068153605386306e+16
3034.816395414191,6.460447368247084e+16,9.403608919325701e+16,254419763986392.62,2627372937475.2773,16843002972644.686,616574932657895.6,1.4159804978941474e+16,1.4381345459290348e+16
3339.2980349556105,6.462593820382268e+16,9.670324828035434e+16,254504293267789.44,2791175554448.1787,17893072665436.47,666669251170853.6,1.530941726067245e+16,1.5826035023200956e+16
3674.227838451172,6.4648534549668344e+16,9.958533941171621e+16,254593279778921.8,2956747177997.1025,18954482512169.17,719654393947686.9,1.6525241542942016e+16,1.741540441568906e+16
4042.6506222962894,6.467230549285653e+16,1.0269570716015432e+17,254686891963184.53,3122764750685.676,20018750920859.203,775481742103832.1,1.7806138083131528e+16,1.916395343442759e+16
4447.915684525919,6.469724144180188e+16,1.0604796216666056e+17,254785092047958.94,3287773195774.8247,21076549984146.19,834055445980439.8,1.9149883796712212e+16,2.1087632066938076e+16
4893.707252978511,6.4723294278693e+16,1.0965598877233533e+17,254887690540765.56,3450215681866.4443,22117899493641.844,895226073138134.9,2.0553026951162584e+16,2.3203985663625428e+16
5384.077978276362,6.475038323699762e+16,1.1353396780831755e+17,254994369375429.5,3608473976062.6226,23132425627891.74,958784620155986.5,2.201075056859019e+16,2.5532314113594452e+16
5923.485776103998,6.477839668007426e+16,1.1769643019451611e+17,255104688916421.94,3760918563242.232,24109682246955.64,1024457321727557.2,2.351675441738488e+16,2.8093846485602708e+16
6516.834353714399,6.480719216698877e+16,1.2215835756830213e+17,255218088218059.6,3905967190438.639,25039526196708.03,1091901771563075.4,2.5063167323274664e+16,3.091193272487034e+16
7169.5177890858395,6.483659623491444e+16,1.2693534700829107e+17,255333884167572.56,4042149323061.4146,25912530511244.887,1160704939731424.5,2.6640503125019156e+16,3.4012254144624068e+16
7887.469567994424,6.486640476679133e+16,1.3204385763185701e+17,255451272932994.44,4168172786805.9307,26720411626433.395,1230383718248538.8,2.8237674661584276e+16,3.742305462788653e+16
8677.216524793868,6.489638450530813e+16,1.3750155691238562e+17,255569335925361.34,4282987777965.635,27456439722916.3,1300388635021253.0,2.9842080343391028e+16,4.117539466523894e+16
9545.938177273256,6.4926276101044344e+16,1.4332778343009074e+17,255687051802586.7,4385842658960.847,28115796407056.65,1370111327143833.0,3.14397767102781e+16,4.530343060075566e+16
10501.531995000581,6.495579896095302e+16,1.4954413990955734e+17,255803315563233.3,4476325734876.963,28695842521501.63,1438896238981938.5,3.301574748384147e+16,4.9844721741961384e+16
11552.68519450064,6.4984658042084e+16,1.5617522537479046e+17,255916965300833.56,4554387724307.651,29196262194582.492,1506056792157470.5,3.4554274615792932e+16,5.484056830953606e+16
12708.953713950705,6.501255258701854e+16,1.632495078255936e+17,256026816604835.72,4620341006218.292,29619058010189.566,1570895954279156.2,3.60394095134995e+16,6.033638355517529e+16
13980.849085345777,6.503918661160569e+16,1.7080032907343654e+17,256131703862288.34,4674833917883.85,29968386240363.18,1632730714310736.0,3.745553306851282e+16,6.638210375498692e+16
15379.933993880357,6.506428073611615e+16,1.788670217720153e+17,256230526850006.8,4718801191175.969,30250239110820.65,1690919476093376.0,3.8787981811511176e+16,7.30326401811427e+16
16918.927393268394,6.508758471456059e+16,1.874961062788497e+17,256322300076192.66,4753394653807.673,30472000553519.19,1744890851459406.5,4.002370546392382e+16,8.03483775536222e+16
18611.820132595236,6.510888979263282e+16,1.9674252340699344e+17,256406201447150.44,4779901057950.369,30641919438436.695,1794171838255499.5,4.115190989076765e+16,8.839572386339405e+16
20474.00214585476,6.512803985144354e+16,2.0667085048110896e+17,256481616152333.97,4799655764707.058,30768556239309.414,1838412994451941.0,4.216463097943536e+16,9.724771682762147e+16
22522.40236044024,6.514494021595259e+16,2.1735644475705194e+17,256548171352765.97,4813961550720.993,30860262535623.43,1877408065235647.5,4.305718149714714e+16,1.0698469258327701e+17
24775.642596484264,6.515956306477817e+16,2.2888646237652618e+17,256605757485356.47,4824020806705.513,30924746365049.047,1911105675359654.8,4.382841655429055e+16,1.1769502255744024e+17
27254.206856132692,6.517194859886474e+16,2.4136071403650784e+17,256654532865224.6,4830887008365.551,30968761123605.984,1939611221915256.2,4.448077523750447e+16,1.2947592479722622e+17
29980.627541745966,6.518220151196998e+16,2.5489234052716976e+17,256694909786142.9,4835438046263.41,30997934594917.5,1963177993812763.2,4.502007629426649e+16,1.4243435644469302e+17
32979.69029592056,6.5190482823437784e+16,2.696083204688901e+17,256727522357243.66,4838370523861.881,31016732398250.223,1982187727784782.0,4.54550727303626e+16,1.5668799456202528e+17
36278.65932551262,6.519699771417498e+16,2.8564985522908826e+17,256753178599965.03,4840211226034.402,31028531509786.977,1997122129456538.5,4.579680024979264e+16,1.7236631321432803e+17
39907.525258063884,6.520198055222775e+16,3.031727068142891e+17,256772801477390.75,4841340189944.5205,31035768162292.406,2008528120257628.5,4.605778257607902e+16,1.8961176565589504e+17
43899.277783870275,6.520567869637417e+16,3.2234758759239456e+17,256787365111299.44,4842019397350.391,31040121781662.973,2016980471387147.0,4.625117725068357e+16,2.085810816676596e+17
48290.20556225731,6.520833683189245e+16,3.4336071089070746e+17,256797833094971.47,4842421893362.466,31042701657337.734,2023045844843747.5,4.638995371265068e+16,2.2944669154467536e+17
53120.22611848305,6.521018347233892e+16,3.6641460604133754e+17,256805105335946.56,4842657680335.164,31044212939232.895,2027251966629528.5,4.648618875154831e+16,2.523982898748653e+17
58433.24873033136,6.521142086750295e+16,3.917292809386526e+17,256809978312615.97,4842794494349.617,31045089828687.977,2030064739217401.2,4.655054347577064e+16,2.7764455399352595e+17
64277.57360336451,6.521221897193841e+16,4.1954378379934675e+17,256813121321741.8,4842873086638.687,31045469663409.54,2031874740311793.2,4.659195487399105e+16,3.05415033749034e+17
70706.33096370097,6.521271345039364e+16,4.501181815817875e+17,256815068623658.56,4842909807402.546,31045704996126.105,2032993044444213.5,4.661754053048465e+16,3.359622308730375e+17
77777.96406007107,6.52130071824912e+16,4.8373593968854566e+17,256816225367842.0,4842931620419.644,31045844789420.43,2033654972173865.8,4.6632684597691704e+16,3.6956388793441165e+17
85556.76046607818,6.521317421127555e+16,5.207066703844316e+17,256816883142651.62,4842944024245.289,31045924281937.934,2034029475659456.5,4.664125264801412e+16,4.065255082980338e+17
94113.436512686,6.521326506785885e+16,5.613692089198327e+17,256817240944284.44,4842950771401.019,31045967522500.13,2034231554543333.5,4.664587580318857e+16,4.471831303350047e+17
103525.78016395462,6.521331240964102e+16,6.06094984647373e+17,256817427380604.2,4842954287077.763,31045990053451.77,2034335317744109.5,4.6648249611880344e+16,4.9190638093638554e+17
113879.3581803501,6.521333619504729e+16,6.552916712164369e+17,256817521049734.28,4842956053420.206,31046001373427.67,2034385911728965.8,4.6649406976368776e+16,5.411018356548146e+17
125268.29399838512,6.521334821983927e+16,7.094070990325038e+17,256817568404479.38,4842956946400.566,31046007096279.562,2034386281034907.2,4.664994190804829e+16,5.95216716091134e+17
137796.12339822366,6.521335658030971e+16,7.689333563541321e+17,256817601328784.12,4842957567262.509,31046011075203.46,2034386537801175.0,4.664994682437994e+16,6.547429598416709e+17
151576.73573804603,6.5213358437737784e+16,8.344120698733449e+17,256817608643508.5,4842957705198.109,31046011959192.695,2034386594846450.0,4.6649947916613144e+16,7.202216703458403e+17
166735.40931185064,6.521336013374088e+16,9.064384795632429e+17,256817615322525.5,4842957831146.009,31046012766356.195,2034386646933992.8,4.664994891391283e+16,7.922480772827343e+17
183409.95024303574,6.5213361960475896e+16,9.856673219100338e+17,256817622516377.16,4842957966802.298,31046013635737.957,2034386703036564.0,4.664994998808534e+16,8.714769166643156e+17
201751.94526733932,6.521336397019541e+16,1.0728187964016148e+18,256817630430838.84,4842958116047.294,31046014592205.8,2034386764758948.2,4.6649951169857944e+16,9.586283878936626e+17
221928.13979407327,6.5213366181224776e+16,1.168685113275482e+18,256817639138077.03,4842958280241.876,31046015644481.227,2034386832663942.8,4.664995247000652e+16,1.0544947011785226e+18
244121.9537734806,6.521336861336778e+16,1.274137692704717e+18,256817648716081.1,4842958460856.726,31046016801989.375,2034386907359765.5,4.6649953900176264e+16,1.1599472766598333e+18
268535.1491508287,6.521337131324673e+16,1.3901350800204403e+18,256817659348454.3,4842958661354.072,31046018086918.6,2034386990278279.0,4.6649955487783176e+16,1.2759446595930355e+18
295389.6640659116,6.521337423728592e+16,1.5177316685057574e+18,256817670863591.47,4842958878497.909,31046019478530.418,2034387080081188.0,4.664995720720132e+16,1.4035412433319675e+18
324929.6304725028,6.521337747411292e+16,1.658087261959186e+18,256817683610515.12,4842959118869.877,31046021019004.56,2034387179490409.5,4.664995911054809e+16,1.5438968315312858e+18
357423.5935197531,6.521338103545164e+16,1.8124776234120212e+18,256817697635396.34,4842959383340.602,31046022713920.62,2034387288866022.0,4.664996120471714e+16,1.698287187203253e+18
393166.95287172846,6.521338495293657e+16,1.982306063480024e+18,256817713062815.47,4842959674259.332,31046024578334.293,2034387409179571.5,4.6649963508310184e+16,1.8681156209122816e+18
432484.6481589014,6.521338926214506e+16,2.1691161889502382e+18,256817730032876.5,4842959994268.068,31046026629177.4,2034387541523710.0,4.664996604224782e+16,2.0549257393876626e+18
