t(s),Total solute volume 1,Total retention volume 1,Total 1 volume 1,Total 2 volume 1,Total 3 volume 1,Total 4 volume 1,Total 5 volume 1,Total 6 volume 1
1.0,4979684106815717.0,5254949822814240.0,275265715998509.44,0.0,0.0,0.0,0.0,0.0
2.1,7162486049862954.0,8232219103596279.0,395922968763610.3,320539665574.82654,4044389188411.068,113260658775710.08,457106357920838.1,99078139419171.56
3.3100000000000005,8650088528035530.0,1.0767432375228662e+16,478151890233923.75,812865027218.0591,10251598698162.328,279038860729435.47,1107089514600685.6,241999117903689.38
4.641000000000001,9795368329990720.0,1.3166964716410808e+16,541458588677729.25,1450734762801.5994,18291451827580.598,489069523676183.6,1903173210968047.8,418152876507748.3
6.105100000000002,1.0721182205869726e+16,1.5552538685720942e+16,592634130043566.8,2226139750468.252,28063767286276.34,741960878902173.9,2840472223021363.5,625999340847385.6
7.7156100000000025,1.1486451634197188e+16,1.7992616083690918e+16,634935446467636.1,3137133086321.095,39544551257415.04,1037986274372110.6,3924079330463168.0,866481713847066.4
9.487171000000004,1.212569835586361e+16,2.053496053641419e+16,670270748688466.9,4184887512709.5127,52749005092320.02,1378234942688244.8,5162298594873918.0,1141524001694919.0
11.435888100000005,1.266191909974709e+16,2.321822084138616e+16,699911193893750.4,5372683607110.015,67718826408754.83,1764387347784210.8,6565273041684421.0,1453638648260852.8
13.579476910000007,1.3111873688743958e+16,2.607702626876348e+16,724783190280918.8,6705529128311.347,84517428542466.55,2198624262336623.0,8144715826326467.0,1805806343404689.8
15.937424601000009,1.3488635314711094e+16,2.9144588838748892e+16,745609365340838.5,8190066035455.755,103228772347890.05,2683601442683369.0,9913885919515256.0,2201437958115047.0
18.53116706110001,1.3802934333280622e+16,3.2454202258705164e+16,762982845140424.1,9834624741994.121,123958050334575.78,3222464616657635.5,1.188765572107921e+16,2644372067470774.5
21.384283767210015,1.4063897727671502e+16,3.604020444113525e+16,777408128817991.0,11649353985407.846,146833324557418.0,3818889183020545.5,1.4082634683188128e+16,3138892039894255.0
24.522712143931017,1.4279462187197726e+16,3.993866436986545e+16,789323921880358.0,13646385125056.27,172007600800762.97,4477134617400673.5,1.6517334147422074e+16,3689755510038843.5
27.97498335832412,1.445660454733771e+16,4.418792557880488e+16,799115873977627.9,15840005710928.99,199661022340311.9,5202106809879895.0,1.921236466489379e+16,4302232654664648.0
31.772481694156536,1.4601470654989188e+16,4.882907920981894e+16,807123701993846.5,18246827674323.383,230002998210636.62,5999423673390799.0,2.219065986170257e+16,4982151491857558.0
35.949729863572195,1.4719451131195072e+16,5.390640992739398e+16,813645377799327.4,20885943725995.434,263274184242322.53,6875481127141122.0,2.5477722716477236e+16,5735949446812961.0
40.544702849929415,1.481523355900257e+16,5.94678419219158e+16,818940012843132.4,23779072328923.855,299748320450327.06,7837518225407692.0,2.910189167176242e+16,6570731060120758.0
45.59917313492236,1.4892848421533602e+16,6.556540291929858e+16,823230397262233.4,26950696813419.668,339733993983738.9,8893681729542205.0,3.3094625559000548e+16,7494332121162834.0
51.1590904484146,1.4955717746959556e+16,7.225571840103237e+16,826705688614666.5,30428207511759.48,383576438801389.4,1.0053091664268406e+16,3.749080788723188e+16,8515390767644788.0
57.27499949325607,1.50067096747936e+16,7.960054466204734e+16,829524427931753.5,34242057108435.637,431659500178612.25,1.1325910229876622e+16,4.232907252409929e+16,9643426248059068.0
64.00249944258168,1.504819848663133e+16,8.766734717637582e+16,831817857845892.2,38425938972706.21,484407887050649.2,1.272341681566445e+16,4.765215405859705e+16,1.0888926131613738e+16
71.40274938683986,1.5082127663736448e+16,9.6529929605352e+16,833693408058449.1,43016996586050.44,542289814601086.1,1.4258091831055082e+16,5.350726709122103e+16,1.2263442800093892e+16
79.54302432552385,1.5110072857395058e+16,1.0626911840065078e+17,835238176014813.9,48056069939606.55,605820111462587.4,1.594371176452851e+16,5.994651932656232e+16,1.3779700094747892e+16
88.49732675807624,1.5133301871450808e+16,1.1697350810698763e+17,836522242451356.0,53587982538676.02,675563837758445.5,1.779545744735424e+16,6.702736368540429e+16,1.5451711040029544e+16
98.34705943388387,1.5152829463030636e+16,1.287402729711278e+17,837601700534718.5,59661870817405.33,752140437092275.2,1.9830037072154948e+16,7.481309478767182e+16,1.7294907639825872e+16
109.18176537727226,1.5169468363676446e+16,1.4167605059678597e+17,838521476111893.0,66331568433745.805,836228581996373.4,2.2065833623104244e+16,8.33734355011227e+16,1.9326231482340084e+16
121.09994191499949,1.5183858838468608e+16,1.558979075207704e+17,839316961559725.6,73655971091061.31,928570763288130.1,2.4523025198801556e+16,9.278498178806422e+16,2.1564497999497252e+16
134.20993610649944,1.5196522157846908e+16,1.715343893803651e+17,840016971609431.1,81699574443788.7,1029980083756328.1,2.7223815683987948e+16,1.0313208344339434e+17,2.4030271465326156e+16
148.6309297171494,1.5207874986733402e+16,1.8872666896884016e+17,840644538655943.2,90532918419332.31,1141345848271846.5,3.019258765536011e+16,1.145074492870142e+17,2.6746233734385276e+16
164.49402268886433,1.5218255598069324e+16,2.0762980007850342e+17,841218361776704.5,100233143958699.67,1263640584279666.2,3.3456125880016116e+16,1.270129610824636e+17,2.9737365427939296e+16
181.94342495775078,1.5227941938901168e+16,2.2841408740021805e+17,841753805369380.1,110884578954478.6,1397927427685596.5,3.704385218505895e+16,1.4076055456558917e+17,3.3031172898659144e+16
201.13776745352587,1.5237165818042482e+16,2.5126658355852218e+17,842263683404585.1,122579367026550.95,1545368048892813.2,4.098808322307822e+16,1.5587318128981962e+17,3.665794212825786e+16
222.25154419887846,1.5246124042545788e+16,2.763927251442029e+17,842758875019667.5,135418139697188.53,1707231126062194.0,4.532431312108507e+16,1.7248586034696544e+17,4.065101949282729e+16
245.47669861876633,1.525498716493832e+16,3.04018120406229e+17,843248808043359.5,149510732048210.97,1884901366585651.8,5.009152304053468e+16,1.907468275895007e+17,4.504712170457866e+16
271.024368480643,1.5263906380813684e+16,3.343905020933855e+17,843741840277852.0,164976941401697.06,2079889070936961.8,5.533251987923154e+16,2.1081879005251683e+17,4.988667792820798e+16
299.1268053287073,1.5273019008593284e+16,3.67781859787292e+17,844245562407275.4,181947327785167.5,2293840223223335.0,6.109430654928136e+16,2.3288029361245706e+17,5.5214207503544696e+16
330.03948586157804,1.5282452891765952e+16,4.0449076693184934e+17,844767041343664.8,200564053885285.5,2528547079436033.5,6.742848646135602e+16,2.5712721228832202e+17,6.107873711574065e+16
364.0434344477359,1.5292329988918864e+16,4.448449186235096e+17,845313018676085.5,220981760824754.7,2785959207131216.5,7.439170503297131e+16,2.8377436791917536e+17,6.753426169581185e+16
401.44777789250946,1.5302769357093572e+16,4.892038970612598e+17,845890075584115.1,243368474372576.2,3068194908526120.0,8.204613121576638e+16,3.1305728920161517e+17,7.464025382830144e+16
442.5925556817604,1.5313889687346022e+16,5.379621823378478e+17,846504772998103.2,267906534067637.94,3377552932132274.5,9.045998220120662e+16,3.452341192085693e+17,8.24622270015278e+16
487.8518112499365,1.5325810651649034e+16,5.915524284232977e+17,847163726050252.2,294793518516648.06,3716524133319342.5,9.97080850581011e+16,3.8058766285450054e+17,9.107238848116059e+16
537.6369923749302,1.5338658432301108e+16,6.50449015963844e+17,847873909738104.2,324243253672143.56,4087804192108616.0,1.0987253507613813e+17,4.1942768595069235e+17,1.005502151491933e+17
592.4006916124232,1.5352562011970104e+16,7.151719158661659e+17,848642453831095.0,356486634667156.9,4494303957383031.5,1.2104331508212282e+17,4.620932265709274e+17,1.1098337915526256e+17
652.6407607736655,1.5367658817410914e+16,7.8629086857157e+17,849476954851798.5,391772581730844.6,4939161502623358.0,1.3331906382395182e+17,5.089552411255451e+17,1.2246849376545691e+17
718.9048368510321,1.5384095351788874e+16,8.644299054512603e+17,850385511026005.2,430368841719018.3,5425752223511536.0,1.468078587441325e+17,5.604193725370545e+17,1.3511207224202746e+17
791.7953205361354,1.5402028878303276e+16,9.502722298373425e+17,851376815348579.8,472562710369344.3,5957697937223680.0,1.6162807209678125e+17,6.169289214549873e+17,1.490315699443295e+17
871.9748525897489,1.542162914119393e+16,1.0445654752487103e+18,852460250715495.9,518661617784682.2,6538874256055767.0,1.7790929444058874e+17,6.78968015245692e+17,1.643565402966761e+17
960.1723378487239,1.5443080147428942e+16,1.1481273567026328e+18,853645988409890.1,568993530102819.2,7173415642072729.0,1.9579332845218074e+17,7.470649735185903e+17,1.8122991942384618e+17
1057.1895716335964,1.5466582036664e+16,1.2618517284726182e+18,854945091467247.6,623907111921394.9,7865717443636219.0,2.1543525558416346e+17,8.217958659291075e+17,1.998094552756608e+17
1163.9085287969563,1.5492353065649152e+16,1.3867150581407813e+18,856369624366704.8,683771584759753.6,8620434097521166.0,2.3700457743139274e+17,9.037882531655427e+17,2.2026929917155235e+17
1281.299381676652,1.5520631732049152e+16,1.5237833221024448e+18,857932770428470.1,748976206921112.6,9442472555219044.0,2.606864327600392e+17,9.937250958332846e+17,2.4280178024450445e+17
1410.4293198443174,1.555167906204006e+16,1.6742193215808146e+18,859648958264021.9,819929289850449.2,1.0336979862496684e+16,2.8668288993927885e+17,1.0923488082162111e+18,2.6761938625267085e+17
1552.4722518287492,1.558578108593129e+16,1.8392904104385188e+18,861533998619552.0,897056655884329.9,1.1309323692606118e+16,3.152143129238038e+17,1.2004654243492424e+18,2.949569777324276e+17
1708.7194770116243,1.562325152628766e+16,2.0203766163404826e+18,863605232965460.4,980799432763035.1,1.2365064513342952e+16,3.465207968816528e+17,1.3189488321626143e+18,3.2507426659085626e+17
1880.5914247127869,1.5664434723444234e+16,2.218979124812976e+18,865881695207854.6,1071611072261765.2,1.35099179670071e+16,3.808636669442546e+17,1.4487450173047816e+18,3.582585951060203e+17
2069.6505671840655,1.5709708823766558e+16,2.4367290811214643e+18,868384287923515.4,1169953474922163.2,1.4749705974419612e+16,4.185270302530953e+17,1.59087624123041e+18,3.94828057076936e+17
2277.615623902472,1.5759489256354234e+16,2.675396647311821e+18,871135974538665.0,1276292101588966.8,1.6090295057917644e+16,4.5981936734671936e+17,1.7464450578378135e+18,4.3513500973688614e+17
2506.3771862927197,1.5814232523902578e+16,2.9369002308896067e+18,874161988873002.9,1391089957123059.2,1.7537520436930398e+16,5.05075143804042e+17,1.9166380489226657e+18,4.795700332560688e+17
2758.0149049219917,1.5874440332875122e+16,3.2233157771502013e+18,877490063439270.9,1514800344524190.8,1.909709461173638e+16,5.5465641673717754e+17,2.1027291305446958e+18,5.285664045157501e+17
3034.816395414191,1.594066408664889e+16,3.5368859888858967e+18,881150677806259.6,1647858311417226.2,2.0774499449902172e+16,6.08954402978682e+17,2.3060822496651807e+18,5.826051637162522e+17
3339.2980349556105,1.601350976241539e+16,3.8800293049751173e+18,885177328173940.1,1790670748457983.5,2.257486126381392e+16,6.683909663675027e+17,2.5281532527406577e+18,6.42220866764093e+17
3674.227838451172,1.609364318773374e+16,4.255348433281551e+18,889606819039340.5,1943605153956362.0,2.450280905774259e+16,7.334199700994467e+17,2.770490665090184e+18,7.080081338734438e+17
4042.6506222962894,1.6181795724905056e+16,4.665638193717112e+18,894479577404629.9,2106977154161440.5,2.656231707020356e+16,8.045284263252796e+17,3.0347350716869755e+18,7.806291261781864e+17
4447.915684525919,1.6278770359656228e+16,5.113892385012364e+18,899839989333147.8,2281036967103586.0,2.8756533978566396e+16,8.822373586658104e+17,3.322616736702449e+18,8.60822108349445e+17
4893.707252978511,1.6385448173502798e+16,5.603309345005358e+18,905736757712798.4,2465955121622139.5,3.108760269292599e+16,9.671022736454195e+17,3.635951041144424e+18,9.494112874697581e+17
5384.077978276362,1.6502795154637952e+16,6.137295831166682e+18,912223278730807.4,2661807892515982.5,3.3556476548896332e+16,1.0597131137738849e+18,3.976631256257993e+18,1.0473181582600221e+18
5923.485776103998,1.6631869267700234e+16,6.719468808668427e+18,919358032656994.1,2868563085238467.0,3.616273988404887e+16,1.1606935376752187e+18,4.346618106633273e+18,1.1555746340902774e+18
6516.834353714399,1.677382765496263e+16,7.353654701892326e+18,927204981889926.6,3086066992899059.0,3.890444337059919e+16,1.270699340844888e+18,4.74792551370216e+18,1.2753383043449267e+18
7169.5177890858395,1.6929933776092186e+16,8.043885647766331e+18,935833965605654.0,3314033542904376.0,4.1777966931168216e+16,1.3904157939778394e+18,5.182601851192925e+18,1.4079102343797793e+18
7887.469567994424,1.710156420529949e+16,8.794392293595869e+18,945321075466151.9,3552036832025752.5,4.4777925353849944e+16,1.5205536342063373e+18,5.652705994413165e+18,1.554755817509731e+18
8677.216524793868,1.7290214686888846e+16,9.609592718340964e+18,955748990332611.2,3799508390782730.5,4.789713351679877e+16,1.6618433982371471e+18,6.160277412400089e+18,1.7175293021189176e+18
9545.938177273256,1.749750489526337e+16,1.0494077137513173e+19,967207239363311.6,4055740586108392.0,5.112664899416216e+16,1.8150277361343552e+18,6.707299546620429e+18,1.8981027530434752e+18
10501.531995000581,1.7725181144913008e+16,1.1452588193943912e+19,979792351791719.6,4319897522835558.5,5.445590920918142e+16,1.9808512922901146e+18,7.295655757382609e+18,2.098600364042489e+18
11552.68519450064,1.7975116041683056e+16,1.2489996858557733e+19,993607837627700.0,4591034591853800.0,5.787297762489598e+16,2.1600476897014968e+18,7.92707722225357e+18,2.3214392105066153e+18
12708.953713950705,1.8249303753071076e+16,1.3611274288647825e+19,1008763926193321.5,4868127388018317.0,6.136490811580615e+16,2.353323111767292e+18,8.60308237410951e+18,2.5693776995879404e+18
13980.849085345777,1.854984915555585e+16,1.4821460440557222e+19,1025376966203390.1,5150110031535815.0,6.491822798215896e+16,2.5613359407402097e+18,9.324907714850003e+18,2.845573220831534e+18
15379.933993880357,1.8878949024243104e+16,1.6125630823641188e+19,1043568385977945.2,5435922070248647.0,6.851952929865664e+16,2.7846720166440904e+18,1.0093431078943773e+19,3.1536497592741734e+18
16918.927393268394,1.9238862091370932e+16,1.752886356028393e+19,1063463038371393.5,5724561693754486.0,7.215614004205893e+16,3.0238149255689247e+18,1.0909087572138494e+19,3.497778035710914e+18
18611.820132595236,1.963186598120065e+16,1.903620983795717e+19,1085186820291513.4,6015142038793488.0,7.58168345243359e+16,3.2791113257828813e+18,1.1771782433881778e+19,3.882767048927905e+18
20474.00214585476,2.0060197497776656e+16,2.0652671954288808e+19,1108863372048855.2,6306945597600524.0,7.949252035858746e+16,3.5507313508772014e+18,1.2680804390184825e+19,4.3141676864007485e+18
22522.40236044024,2.052597401020594e+16,2.2383194373707317e+19,1134609731884413.5,6599470830480818.0,8.317682777959008e+16,3.838625022596559e+18,1.3634746441189442e+19,4.798386027569135e+18
24775.642596484264,2.1031094531134148e+16,2.4232674456469668e+19,1162530868068052.0,6892464393931589.0,8.686651847220958e+16,4.14247654202235e+18,1.4631442090899067e+19,5.342803215282902e+18
27254.206856132692,2.157712105539457e+16,2.620600062090247e+19,1192713119929154.0,7185932587097901.0,9.056163348672845e+16,4.461659612148419e+18,1.566792489194227e+19,5.955898716562626e+18
29980.627541745966,2.2165143130691744e+16,2.8308126432985227e+19,1225216712110714.2,7480126705992820.0,9.42653134563644e+16,4.795198198945057e+18,1.6740416411780893e+19,6.647376022254159e+18
32979.69029592056,2.2795630633475748e+16,3.0544189234263335e+19,1260067616949631.5,7775498835160151.0,9.798324735132522e+16,5.141737842066768e+18,1.784434329155423e+19,7.428293656205435e+18
36278.65932551262,2.346828036528669e+16,3.291968121082093e+19,1297249075356499.2,8072626903419067.0,1.0172273466032184e+17,5.499532264158064e+18,1.897438086274157e+19,8.311207192916941e+18
39277.72207968722,2.4065220994115596e+16,3.501521489557431e+19,1330245623669313.5,8324801693948283.0,1.0489610872007638e+17,5.807838161891554e+18,1.99394531590846e+19,9.129307197566348e+18
42004.142765300494,2.4595868285460668e+16,3.687117742378811e+19,1359577732174131.5,8541445159518538.0,1.0762212556743458e+17,6.074662240606098e+18,2.0768066200361665e+19,9.886329966075703e+18
45003.205519475094,2.516081586219146e+16,3.885813008979144e+19,1390805823201045.0,8765263593432381.0,1.1043820403054662e+17,6.351115399729802e+18,2.162178696172979e+19,1.0739472639022565e+19
47729.62620508837,2.5660905515543716e+16,4.062264765262803e+19,1418448824157576.5,8958949001984635.0,1.1287505491863774e+17,6.590116466773123e+18,2.2356368068460044e+19,1.1527249759134585e+19
50208.1904647368,2.6104287969588896e+16,4.2194525144690336e+19,1442957275715930.8,9127736280636128.0,1.1499860631790139e+17,6.797613706241872e+18,2.2991515520803463e+19,1.2253722329801112e+19
52934.61115035007,2.657524340706579e+16,4.388750292408893e+19,1468989855792432.0,9304319414672632.0,1.1722018537462984e+17,7.013380600532577e+18,2.3650270744179134e+19,1.3069282841325031e+19
55413.175409998505,2.6991428870086936e+16,4.539878443407272e+19,1491994971195551.2,9458572933312188.0,1.1916086376396822e+17,7.200602431284293e+18,2.4221278997065466e+19,1.3819800145184375e+19
58139.59609561178,2.7432179145377004e+16,4.703010582955063e+19,1516357938523417.5,9620281942137328.0,1.2119535350418382e+17,7.395186277695006e+18,2.4814406421201973e+19,1.4660748958123512e+19
60618.16035526021,2.7820851945415556e+16,4.8489195687352844e+19,1537842273315754.8,9761785474221592.0,1.2297571423498558e+17,7.564046216745216e+18,2.5329710293057446e+19,1.5433342983622265e+19
62871.400591304235,2.8164479249624316e+16,4.979709644161824e+19,1556836674193429.0,9886151487206832.0,1.2454053271380072e+17,7.711219807256961e+18,2.577900832012379e+19,1.614272031411267e+19
65349.96485095267,2.852876826953923e+16,5.121489636433606e+19,1576973181270803.8,1.0017306516134106e+16,1.2619082870391643e+17,7.864922669857481e+18,2.6248295927282692e+19,1.6935363890525075e+19
67603.20508699669,2.8850220334833184e+16,5.2487623019036025e+19,1594741833424719.0,1.013257218379188e+16,1.2764128998962846e+17,7.998882138648215e+18,2.665851433017194e+19,1.7662007725874172e+19
70081.76934664512,2.9190431812724836e+16,5.386939734556933e+19,1613547441671770.8,1.025412892443577e+16,1.2917099335920542e+17,8.138796351791396e+18,2.708768772004982e+19,1.8472684172190118e+19
72335.00958268915,2.9490277843427132e+16,5.511143911883227e+19,1630121809513659.0,1.036096762655321e+16,1.3051559518035528e+17,8.260799502236836e+18,2.7463660689196724e+19,1.9214981964938846e+19
74813.57384233757,2.9807307784179264e+16,5.646178435393976e+19,1647646047402291.0,1.0473653498597892e+16,1.3193387905011298e+17,8.388288971737711e+18,2.7857490167264383e+19,2.004214272855736e+19
77066.8140783816,3.008651504252099e+16,5.767705112736438e+19,1663079597729336.0,1.0572708548477962e+16,1.3318072677023326e+17,8.499538223019805e+18,2.8203145668614463e+19,2.079886420577109e+19
79545.37833803003,3.038154011169722e+16,5.899996179145083e+19,1679387506624390.2,1.0677201074994288e+16,1.3449612008028934e+17,8.615866766558142e+18,2.8565616266475352e+19,2.1641244509643846e+19
81798.61857407406,3.0641233239022348e+16,6.019184626082337e+19,1693742404730169.5,1.076906153455651e+16,1.3565262292915715e+17,8.717457768202538e+18,2.8884304909747343e+19,2.2411326922766045e+19
84277.18283372249,3.0915523214049456e+16,6.149078476086812e+19,1708904172116668.0,1.0865975360288338e+16,1.3687285125012699e+17,8.823766085215461e+18,2.9218857016504627e+19,2.326779840515143e+19
86530.42306976652,3.1156872048095332e+16,6.266222582464725e+19,1722245081048408.0,1.0951175785994082e+16,1.3794572393370446e+17,8.916684022286735e+18,2.951349322042549e+19,2.405027256508617e+19
