t(s),Total solute volume 1,Total retention volume 1,Total 1 volume 1,Total 2 volume 1,Total 3 volume 1,Total 4 volume 1,Total 5 volume 1,Total 6 volume 1
1.0,2490588835008749.5,2493364850322479.5,2776015313740.5356,0.0,0.0,0.0,0.0,0.0
2.1,3773084368776232.0,3871667460115562.0,4205487290244.027,19355793181.84269,89036908006.48296,1639660205782.5103,32162787949609.375,60466763192506.57
3.3100000000000005,4760469556363993.0,5015712483325467.0,5306028716405.3,51271283795.918015,235848578465.78497,4343785740964.083,85200400711126.19,160105591930708.28
4.641000000000001,5602122847150719.0,6071855410742638.0,6244137100204.596,95074808577.55792,437345398533.3109,8055975583855.217,158008392680676.44,296891638020074.8
6.105100000000002,6352663244795530.0,7096585041402143.0,7080690885061.707,151119310904.5071,695150962637.9355,12806720382521.11,251186415000043.8,472001700065470.3
7.7156100000000025,7038474807072841.0,8120193252125007.0,7845097790881.107,220180280939.03906,1012832592997.3842,18662451237321.574,366038877122556.2,687939006027476.0
9.487171000000004,7674266333189118.0,9162540663849784.0,8553752272624.355,303287286407.29034,1395126383723.016,25711313672513.383,504296124192879.25,948014726852502.9
11.435888100000005,8268967977809489.0,1.0238657056022382e+16,9216607897259.045,401660503170.0549,1847645244460.5947,34057840217266.426,668010034617055.9,1256155289733647.0
13.579476910000007,8828309223618884.0,1.1361198033743428e+16,9840050756752.076,516683956156.1973,2376755812174.7246,43820740817446.99,859510718025244.9,1616823860756746.2
15.937424601000009,9356111264988926.0,1.2541693467140496e+16,10428339961295.523,649894856112.5281,2989529404254.396,55132067558148.52,1081390136048540.1,2034992234323206.2
18.53116706110001,9855002537140882.0,1.3791260183759794e+16,10984405169431.771,802981360075.259,3693731721409.9175,68137106448193.95,1336499955314303.5,2516139466605467.5
21.384283767210015,1.0326845840008278e+16,1.512105215611143e+16,11510322661099.328,977785500459.3728,4497836327042.874,82994723506599.7,1627958284902820.8,3066267363205129.5
24.522712143931017,1.0773008334272572e+16,1.654257269302185e+16,12007616275717.896,1176309769743.736,5411054943424.802,99878040498744.7,1959162858558810.8,3691928478702807.5
27.97498335832412,1.1194539471855534e+16,1.806791066625876e+16,12477455733857.947,1400726596087.645,6443381047553.689,118975379749699.12,2333809483241733.0,4400264768034300.5
31.772481694156536,1.1592291448197722e+16,1.9709934072896644e+16,12920790893596.559,1653390280684.1462,7605644792796.11,140491446699394.67,2755915152011284.5,5199056200021161.0
35.949729863572195,1.196700178703625e+16,2.1482460092983492e+16,13338443799694.668,1936851123685.5024,8909578000217.307,164648733041600.78,3229845497343720.5,6096779202638351.0
40.544702849929415,1.2319349923869602e+16,2.3400413490794388e+16,13731171751666.178,2253871546632.5166,10367888336587.246,191689131284918.12,3760346414945879.0,7102675089059079.0
45.59917313492236,1.2649995450719024e+16,2.547998129052795e+16,14099709931492.492,2607444072656.667,11994342041435.418,221875757425725.56,4352579798221398.5,8226828788116235.0
51.1590904484146,1.295960325940127e+16,2.7738769489751704e+16,14444799428389.104,3000811068486.993,13803854762283.459,255494983635200.97,5012163420678402.0,9480258360777692.0
57.27499949325607,1.324885930192664e+16,3.019596631923538e+16,14767204805393.893,3437486185311.868,15812590209137.875,292858687557980.56,5745215091344614.0,1.087501595720637e+16
64.00249944258168,1.3518479647127324e+16,3.2872515775656268e+16,15067724193912.379,3921277452246.7886,18038066416245.49,334306728495501.56,6558401277479043.0,1.2424301054492104e+16
71.40274938683986,1.3769214752471842e+16,3.579130461556267e+16,15347194055091.572,4456311968921.091,20499269365957.89,380209662809993.44,7458990428080143.0,1.4142586996810746e+16
79.54302432552385,1.4001850302252586e+16,3.897736559564317e+16,15606490114060.262,5047062107720.183,23216773564222.953,430971710982284.8,8454911233737816.0,1.6045762022884436e+16
88.49732675807624,1.4217205549570964e+16,4.2458099432642104e+16,15846525511890.832,5698373070927.697,26212868857084.715,487033986893959.1,9554816022957890.0,1.815128610577933e+16
98.34705943388387,1.441612981598618e+16,4.626351772595429e+16,16068246904087.506,6415491556477.307,29511692356737.652,548877996398444.2,1.0768149427947274e+16,2.0478365054805092e+16
109.18176537727226,1.4599497625391268e+16,5.042650893879911e+16,16272629036779.36,7204095173232.634,33139363827105.938,617029407576599.6,1.2105222362996088e+16,2.3048143454798016e+16
121.09994191499949,1.4768202850317448e+16,5.498312947170846e+16,16460668222164.518,8070322117588.254,37124122285214.83,692062089712870.4,1.3577291255002712e+16,2.588391816405051e+16
134.20993610649944,1.4923152201233604e+16,5.997292188149788e+16,16633375081656.723,9020800480996.963,41496460920865.234,774602412304790.8,1.5196642354592074e+16,2.9011374276884024e+16
148.6309297171494,1.5065258367315564e+16,6.543926239050067e+16,16791766900561.44,10062676403584.334,46289256726989.49,865333789434204.2,1.6976680839609384e+16,3.245884569411047e+16
164.49402268886433,1.5195433101457002e+16,7.142973998088387e+16,16936859920605.566,11203640120575.76,51537890458592.49,965001448445047.6,1.893202429783552e+16,3.625760274264654e+16
181.94342495775078,1.531458052105319e+16,7.799656956160198e+16,17069661872970.457,12451948762097.107,57280351682140.59,1074417394740048.1,2.1078600035754e+16,4.044216964773743e+16
201.13776745352587,1.5423590864126858e+16,8.519704191557237e+16,17191165018852.02,13816444558134.273,63557322717204.43,1194465536119607.5,2.3433745495215444e+16,4.505067508781633e+16
222.25154419887846,1.5523334897652228e+16,9.30940133684325e+16,17302339916964.459,15306566864023.518,70412234184901.72,1326106919830807.2,2.601631085802318e+16,5.01252395519606e+16
245.47669861876633,1.5614659124661672e+16,1.0175643835681853e+17,17404130081369.564,16932356153581.38,77891283643861.25,1470385022711140.2,2.884676266689027e+16,5.571240377267654e+16
271.024368480643,1.5698381883439374e+16,1.1125994830528163e+17,17497447633629.682,18704447824405.285,86043407402609.16,1628431018819099.8,3.194728697659319e+16,6.18636031235693e+16
299.1268053287073,1.5775290380382942e+16,1.2168748044095208e+17,17583169995629.33,20634053323095.29,94920194047939.53,1801468929061156.2,3.5341890158159092e+16,6.8635693555982296e+16
330.03948586157804,1.5846138651618834e+16,1.3312996037998264e+17,17662137617588.32,22732925730762.52,104575726538424.31,1990820532878914.8,3.905649499841247e+16,7.609153540718544e+16
364.0434344477359,1.5911646409620506e+16,1.4568704250727498e+17,17735152692501.227,25013306559246.95,115066337917653.3,2197909892391994.8,4.311902915426255e+16,8.43006422538303e+16
401.44777789250946,1.597249870103248e+16,1.5946791233966458e+17,17802978774748.242,27487850109619.223,126450263865747.52,2424267303859284.0,4.7559502323172536e+16,9.333990291885032e+16
442.5925556817604,1.602934628068125e+16,1.7459215521226877e+17,17866341196970.133,30169521357452.84,138787173525014.81,2671532449316601.5,5.241006766644707e+16,1.0329438577974435e+17
487.8518112499365,1.6082806593582324e+16,1.9119069575888128e+17,17925928164616.207,33071462983315.45,152137558440907.88,2941456472226325.5,5.7705062059636424e+16,1.142582356838474e+17
537.6369923749302,1.6133465250336882e+16,2.0940681277251654e+17,17982392400425.598,36206826901744.89,166561958235503.7,3235902644502268.0,6.348101863609479e+16,1.2633567506404496e+17
592.4006916124232,1.618187788013194e+16,2.2939723413622848e+17,18036353209785.785,39588565509935.15,182120001017887.34,3556845228107520.5,6.977664383085651e+16,1.3964212227739514e+17
652.6407607736655,1.6228572248051622e+16,2.5133331661558957e+17,18088398840693.04,43229177945155.56,198869236840555.56,3906366062622025.0,7.663274972378997e+16,1.5430544176749946e+17
718.9048368510321,1.6274050528126544e+16,2.7540231541633782e+17,18139089017298.434,47140406990230.625,216863744113326.56,4286648331248731.5,8.409213093362074e+16,1.704673423832207e+17
791.7953205361354,1.6318791629242566e+16,3.018087485546594e+17,18188957532370.977,51332882998556.97,236152492243018.5,4699966872839034.0,9.219937365098965e+16,1.882849420688144e+17
871.9748525897489,1.63632534766827e+16,3.307758612943551e+17,18238514790309.246,55815712439434.21,256777449408510.9,5148674318748055.0,1.0100058266031997e+17,2.0793251916196608e+17
960.1723378487239,1.6407875156922646e+16,3.625471962190123e+17,18288250197735.363,60596010519004.89,278771432896202.25,5635182244005537.0,1.1054301045256016e+17,2.2960347267191085e+17
1057.1895716335964,1.6453078836815456e+16,3.9738827498957274e+17,18338634302622.08,65678379946209.05,302155711428461.5,6161936437381977.0,1.2087457087182872e+17,2.5351251611786925e+17
1163.9085287969563,1.6499271370189182e+16,4.35588398571281e+17,18390120585010.42,71064341415993.53,326937385012594.94,6731385321542833.0,1.320432183084652e+17,2.7989813172407034e+17
1281.299381676652,1.654684550506739e+16,4.774625738082287e+17,18443146802580.12,76751725879887.9,353106588510311.5,7345940502391317.0,1.4409617244129683e+17,3.090253138982814e+17
1410.4293198443174,1.6596180603350486e+16,5.233535758193858e+17,18498135792808.207,82734044225018.6,380633590646920.3,8007928408947331.0,1.5707896819957002e+17,3.411886328368534e+17
1552.4722518287492,1.6647642782235532e+16,5.7363415796397574e+17,18555495630596.17,88999856562248.95,409465890436269.94,8719532018602310.0,1.7103431129216458e+17,3.767156506283446e+17
1708.7194770116243,1.6701584383537204e+16,6.28709424293072e+17,18615619036774.52,95532170782548.39,439525447306476.06,9482721768609042.0,1.8600072175635258e+17,4.159707231474477e+17
1880.5914247127869,1.675834267433605e+16,6.890193837257033e+17,18678881929843.426,102307908052155.16,470706218079407.94,1.0299174959178156e+16,2.0201095201995728e+17,4.59359221064171e+17
2069.6505671840655,1.681823768131105e+16,7.550417109572008e+17,18745641012116.016,109297480926488.67,502872210836392.75,1.1170183287086576e+16,2.190901725479499e+17,5.073322021080758e+17
2277.615623902472,1.6881569063439358e+16,8.272947466490719e+17,18816230284024.105,116464536937091.66,535856298768126.8,1.2096548645578654e+16,2.372539279293551e+17,5.6039156394471e+17
2506.3771862927197,1.694861193567993e+16,9.063407790980516e+17,18890956389188.965,123765925703605.23,569460061113194.5,1.3078468022770548e+16,2.565058799612005e+17,6.190957022351939e+17
2758.0149049219917,1.7019611572568966e+16,9.927896616501729e+17,18970092711039.76,131151949399551.23,603454926596874.4,1.411540926146993e+16,2.7683537258034016e+17,6.840656912670856e+17
3034.816395414191,1.7094776948657488e+16,1.0873028348593708e+18,19053872172973.94,138566953075276.58,637584879656256.2,1.5205980635954478e+16,2.9821487691841e+17,7.559919946514432e+17
3339.2980349556105,1.7174273116199738e+16,1.1905978398979594e+18,19142478742515.645,145950301147691.94,671570943048293.1,1.6347798668186782e+16,3.205974035445633e+17,8.356417008460719e+17
3674.227838451172,1.7258212483486834e+16,1.3034534298943186e+18,19236037710131.992,153237767715401.62,705117564859471.0,1.7537360332862666e+16,3.4391400282370726e+17,9.238662628839762e+17
4042.6506222962894,1.7346645143540648e+16,1.4267154082542195e+18,19334604909578.26,160363340220800.47,737920908709789.9,1.876992773189978e+16,3.680715121490744e+17,1.0216097043758653e+18
4447.915684525919,1.7439548515435016e+16,1.5613033467162056e+18,19438155172097.586,167261398379831.7,769678873132217.4,2.003943534003859e+16,3.929507483478397e+17,1.1299172360862089e+18
4893.707252978511,1.7536816700147624e+16,1.7082183594250386e+18,19546570462435.777,173869184851465.0,800102457095341.0,2.133843184278794e+16,4.184053810385196e+17,1.2499442116311754e+18
5384.077978276362,1.7638250116863014e+16,1.8685521305442757e+18,19659628327447.78,180129434518324.56,828927860366757.6,2.2658070122303172e+16,4.442617525625641e+17,1.382965340819337e+18
5923.485776103998,1.7743546165923164e+16,2.0434974090477243e+18,19776991489007.336,185992981531667.38,855928487596137.0,2.398815971340654e+16,4.703199248121301e+17,1.5303840798956475e+18
6516.834353714399,1.785229184561591e+16,2.2343601919238364e+18,19898199614668.496,191421125628401.78,880925851277072.9,2.531729558051395e+16,4.9635622361483245e+17,1.693742135706352e+18
7169.5177890858395,1.7963959407053086e+16,2.4425738123891717e+18,20022664474586.85,196387521163798.1,903798284877878.6,2.663307483787382e+16,5.221275071668185e+17,1.874729062506908e+18
7887.469567994424,1.807790623014094e+16,2.669715129350517e+18,20149669803277.65,200879363025023.03,924486425821257.4,2.7922408561213412e+16,5.473772967908608e+17,2.0751920023096538e+18
8677.216524793868,1.8193380101454204e+16,2.917522975807349e+18,20278377182345.105,204897689652307.56,942994638929255.0,2.9171928783180796e+16,5.7184376954208845e+17,2.297145726674863e+18
9545.938177273256,1.8309530925526124e+16,3.187918966713785e+18,20407839093907.832,208456706002025.12,959387930173626.4,3.0368481111438284e+16,5.952694226791416e+17,2.542783279522408e+18
10501.531995000581,1.8425429563844496e+16,3.483030693764763e+18,20537019918577.453,211582141958754.5,973784418494965.4,3.149968164406381e+16,6.174119894416439e+17,2.8144876895348326e+18
11552.68519450064,1.8540093948234604e+16,3.8052172525385723e+18,20664825041480.285,214308789281785.6,986344020535488.4,3.255450412962449e+16,6.380559365440361e+17,3.1148454002818237e+18
12708.953713950705,1.8652521868736564e+16,4.15709696793898e+18,20790137397681.387,216677480136584.53,997254555877934.9,3.3523851494379416e+16,6.570236429585221e+17,3.446662229443932e+18
13980.849085345777,1.8761728949986748e+16,4.541577122558999e+18,20911859800723.34,218731856876629.94,1006716880339866.5,3.4401057394623176e+16,6.741851950921029e+17,3.812982780525268e+18
15379.933993880357,1.886678941878423e+16,4.961885467287106e+18,21028960382224.0,220515313576006.8,1014930798604319.0,3.5182261024767172e+16,6.894656876971489e+17,4.217114254073839e+18
16918.927393268394,1.8966876490917684e+16,5.421603320932685e+18,21140517607100.5,222068453016437.8,1022083340045426.5,3.5866604288542292e+16,7.028490369566336e+17,4.662655510885924e+18
18611.820132595236,1.906129875126577e+16,5.924700157036113e+18,21245760822888.918,223427302569007.88,1028340521726915.9,3.645621569578927e+16,7.143776128150195e+17,5.153532016188905e+18
20474.00214585476,1.914952892991258e+16,6.475569732372392e+18,21344102333649.996,224622389846881.72,1033843067211069.5,3.695596913986805e+16,7.241474648672863e+17,5.69403695987594e+18
22522.40236044024,1.9231222077148456e+16,7.079068020571638e+18,21435157657854.14,225678627470689.4,1038705852200738.2,3.737303492231634e+16,7.322994884859841e+17,6.288878455448862e+18
24775.642596484264,1.930622128278535e+16,7.740553449659951e+18,21518751903139.58,226615831563219.2,1043020272903986.9,3.77162698965795e+16,7.390074547402564e+17,6.943232348883962e+18
27254.206856132692,1.937455060686678e+16,8.465930168068247e+18,21594911886869.883,227449627654350.06,1046858404886856.6,3.799551728165662e+16,7.44464289237504e+17,7.662799907997763e+18
29980.627541745966,1.9436396515774108e+16,9.26169524130552e+18,21663845444787.402,228192490398991.62,1050277784981883.9,3.822089901910865e+16,7.488682233688301e+17,8.453869588280969e+18
32979.69029592056,1.9492080529359896e+16,1.0134990780180572e+19,21725910943462.367,228854710750308.56,1053325864942520.1,3.84021812663912e+16,7.524103936271279e+17,9.323382218271054e+18
36278.65932551262,1.9542026700101144e+16,1.1093662007103912e+19,21781581032504.414,229445162989533.25,1056043547391878.5,3.85482769635873e+16,7.552651358984205e+17,1.027899929725039e+19
39907.525258063884,1.958672780241597e+16,1.2146322187500767e+19,21831404959117.605,229971827030722.3,1058467596743883.8,3.866692224992531e+16,7.575836883316274e+17,1.1329174578288091e+19
43899.277783870275,1.9626713710072324e+16,1.3302425217271386e+19,21875973321507.965,230442086788581.94,1060632019154221.8,3.876453232949801e+16,7.594914059404655e+17,1.248322961521205e+19
48290.20556225731,1.9662524537504756e+16,1.4572346505936654e+19,21915888132149.094,230862862323594.62,1062568676208590.2,3.884621437829635e+16,7.610880430838673e+17,1.3751434376510292e+19
53120.22611848305,1.969468997113007e+16,1.596747267080292e+19,21951739780431.75,231240642649739.94,1064307439895425.9,3.891589599469157e+16,7.624502884585638e+17,1.5145094296556216e+19
58433.24873033136,1.972371509158799e+16,1.7500300491261712e+19,21984091230108.105,231581475856849.47,1065876149735107.2,3.89765202677873e+16,7.636355942675388e+17,1.6676645219917945e+19
64277.57360336451,1.975007210128742e+16,1.918454557661023e+19,22013468798799.78,231890954256350.38,1067300545947486.9,3.9030262072183464e+16,7.646864124252466e+17,1.8359757625042495e+19
70706.33096370097,1.9774196833978696e+16,2.103526126844963e+19,22040358267560.438,232174213376358.16,1068604265656499.8,3.907873130053259e+16,7.656341691771411e+17,2.0209451352300667e+19
77777.96406007107,1.9796488735501916e+16,2.306896840872918e+19,22065204859416.418,232435949698269.88,1069808919192887.9,3.912314286151605e+16,7.665025860874476e+17,2.224222188097091e+19
85556.76046607818,1.981731308830543e+16,2.530379673075619e+19,22088415718818.65,232680453903058.47,1070934266246026.8,3.9164446303330216e+16,7.67310209990341e+17,2.447617905823833e+19
94113.436512686,1.983700449272679e+16,2.775963875013331e+19,22110363791883.484,232911655858209.03,1071998388611689.9,3.920341732314296e+16,7.680721976835012e+17,2.693119911022577e+19
103525.78016395462,1.9855870907520508e+16,3.0458317131175854e+19,22131392329971.61,233133171388623.8,1073017928373283.4,3.924071846753569e+16,7.68801499050786e+17,2.962909076025795e+19
113879.3581803501,1.9874197815859276e+16,3.3423766576144974e+19,22151819533120.016,233348352427424.78,1074008313031983.4,3.927693770246983e+16,7.695096085607235e+17,3.2593776323580924e+19
125268.29399838512,1.9892252283975796e+16,3.668223133035193e+19,22171943073810.68,233560334669526.84,1074983974835303.0,3.931261258220323e+16,7.702070361642355e+17,3.5851488713068896e+19
137796.12339822366,1.991028681239902e+16,4.026247941896681e+19,22192044389565.676,233772082790016.12,1075958558897639.2,3.934824581348918e+16,7.709036106682551e+17,3.943098535298666e+19
151576.73573804603,1.9928542958375056e+16,4.4196034732258976e+19,22212392720502.816,233986432975944.28,1076945118955637.9,3.938431576613745e+16,7.716086848164718e+17,4.336378004477327e+19
166735.40931185064,1.9947254732966684e+16,4.8517428066496774e+19,22233248895749.39,234206132812565.4,1077956300947230.2,3.9421285726973256e+16,7.723313157669011e+17,4.768439381458723e+19
183409.95024303574,1.9966651832318504e+16,5.326446816237663e+19,22254868935015.336,234433879222469.6,1079004517628940.0,3.945960952613897e+16,7.730803752899191e+17,5.243062583246238e+19
201751.94526733932,1.9986962702711296e+16,5.847853374423506e+19,22277507464907.996,234672354453185.9,1080102114211109.1,3.949973852017957e+16,7.738646860880713e+17,5.764384530494801e+19
221928.13979407327,2.000841750070283e+16,6.420488742741001e+19,22301421018310.22,234924260832973.12,1081261528323572.9,3.954212744056487e+16,7.746931361130267e+17,6.336930525914554e+19
244121.9537734806,2.0031250975231116e+16,7.049301221437519e+19,22326871246777.28,235192354610342.88,1082495445764026.2,3.9587240087926776e+16,7.755747898497055e+17,6.9656478918790685e+19
268535.1491508287,2.005570530594794e+16,7.739697108041243e+19,22354128084148.12,235479479279673.1,1083816953881059.6,3.9635554939709624e+16,7.765189978888716e+17,7.655941917171671e+19
295389.6640659116,2.0082032930629136e+16,8.497578985639946e+19,22383472897981.348,235788598778561.12,1085239694366758.8,3.968757073611516e+16,7.775355060543676e+17,8.413714133491232e+19
324929.6304725028,2.0110499393709308e+16,9.329386323139392e+19,22415201664536.42,236122830933209.97,1086778017190738.2,3.9743812107646984e+16,7.786345653196895e+17,9.245402903852325e+19
