t(s),Total solute volume 1,Total retention volume 1,Total 1 volume 1,Total 2 volume 1,Total 3 volume 1,Total 4 volume 1,Total 5 volume 1,Total 6 volume 1
1.0,2490588835008749.5,2493364850322479.0,2776015313740.5356,0.0,0.0,0.0,0.0,0.0
2.1,3827749198600471.0,3832015615411138.5,4266416810673.7324,0.0,0.0,0.0,0.0,0.0
3.3100000000000005,4904226807444229.0,4909693068256743.0,5466260812524.659,0.0,0.0,0.0,0.0,0.0
4.641000000000001,5866763717371588.0,5873302823670320.0,6539106298724.126,0.0,0.0,0.0,0.0,0.0
6.105100000000002,6770111787974974.0,6777657767769560.0,7545979794573.1875,0.0,0.0,0.0,0.0,0.0
7.7156100000000025,7641805961710792.0,7650323533509289.0,8517571798495.517,0.0,0.0,0.0,0.0,0.0
9.487171000000004,8498211900403038.0,8507684023910918.0,9472123507888.6,0.0,0.0,0.0,0.0,0.0
11.435888100000005,9350207592776284.0,9360629352325724.0,10421759549443.994,0.0,0.0,0.0,0.0,0.0
13.579476910000007,1.0205648426765294e+16,1.021702366231857e+16,11375235553268.904,0.0,0.0,0.0,0.0,0.0
15.937424601000009,1.1070589220224802e+16,1.1082928520455284e+16,12339300230463.625,0.0,0.0,0.0,0.0,0.0
18.53116706110001,1.1949948429104466e+16,1.196326786480504e+16,13319435700579.139,0.0,0.0,0.0,0.0,0.0
21.384283767210015,1.2847890668827612e+16,1.286221095267798e+16,14320283850362.293,0.0,0.0,0.0,0.0,0.0
24.522712143931017,1.3768049591150552e+16,1.378339548590293e+16,15345894752369.35,0.0,0.0,0.0,0.0,0.0
27.97498335832412,1.471364711149756e+16,1.473004697105319e+16,16399859555634.191,0.0,0.0,0.0,0.0,0.0
31.772481694156536,1.5687534237732578e+16,1.5705019593725826e+16,17485355993233.025,0.0,0.0,0.0,0.0,0.0
35.949729863572195,1.6692164724029954e+16,1.671076984304662e+16,18605119016727.426,0.0,0.0,0.0,0.0,0.0
40.544702849929415,1.7729508214676844e+16,1.7749269558663016e+16,19761343986166.727,0.0,0.0,0.0,0.0,0.0
45.59917313492236,1.880091090009832e+16,1.882186643145563e+16,20955531357321.703,0.0,0.0,0.0,0.0,0.0
51.1590904484146,1.9906916375015824e+16,1.9929104662026184e+16,22188287010333.812,0.0,0.0,0.0,0.0,0.0
57.27499949325607,2.104706493062926e+16,2.107052402917034e+16,23459098541037.996,0.0,0.0,0.0,0.0,0.0
64.00249944258168,2.2219693783540244e+16,2.2244459896136724e+16,24766112596480.586,0.0,0.0,0.0,0.0,0.0
71.40274938683986,2.3421762299476896e+16,2.344786823954666e+16,26105940069738.58,0.0,0.0,0.0,0.0,0.0
79.54302432552385,2.4648724664838376e+16,2.467619817901857e+16,27473514180167.793,0.0,0.0,0.0,0.0,0.0
88.49732675807624,2.5894468229976652e+16,2.5923330251728104e+16,28862021751448.9,0.0,0.0,0.0,0.0,0.0
98.34705943388387,2.7151330074298412e+16,2.7181592995974104e+16,30262921675738.375,0.0,0.0,0.0,0.0,0.0
109.18176537727226,2.8410198530663948e+16,2.8441864588737396e+16,31666058073485.355,0.0,0.0,0.0,0.0,0.0
121.09994191499949,2.966070139235064e+16,2.9693761262420276e+16,33059870069629.215,0.0,0.0,0.0,0.0,0.0
134.20993610649944,3.089147857761144e+16,3.092591027331761e+16,34431695706171.83,0.0,0.0,0.0,0.0,0.0
148.6309297171494,3.2090533727876864e+16,3.2126301891710904e+16,35768163834070.59,0.0,0.0,0.0,0.0,0.0
164.49402268886433,3.3245655721960856e+16,3.3282711385894148e+16,37055663933333.42,0.0,0.0,0.0,0.0,0.0
181.94342495775078,3.434489654968741e+16,3.4383177428438492e+16,38280878751104.6,0.0,0.0,0.0,0.0,0.0
201.13776745352587,3.5377085974436348e+16,3.5416517332380904e+16,39431357944434.29,0.0,0.0,0.0,0.0,0.0
222.25154419887846,3.633235620556695e+16,3.637285230844673e+16,40496102879819.516,0.0,0.0,0.0,0.0,0.0
245.47669861876633,3.720264245661192e+16,3.7244108581166696e+16,41466124554818.78,0.0,0.0,0.0,0.0,0.0
271.024368480643,3.798211945811487e+16,3.802445438824943e+16,42334930134568.3,0.0,0.0,0.0,0.0,0.0
299.1268053287073,3.8667531674665576e+16,3.871063056567656e+16,43098891010937.89,0.0,0.0,0.0,0.0,0.0
330.03948586157804,3.9258377918396056e+16,3.930213536696802e+16,43757448572003.96,0.0,0.0,0.0,0.0,0.0
364.0434344477359,3.975692036877584e+16,3.980123349303067e+16,44313124254887.01,0.0,0.0,0.0,0.0,0.0
401.44777789250946,4.016800370997957e+16,4.0212775027935416e+16,44771317955781.87,0.0,0.0,0.0,0.0,0.0
442.5925556817604,4.0498690788418744e+16,4.054383069035569e+16,45139901937025.234,0.0,0.0,0.0,0.0,0.0
487.8518112499365,4.07577440419205e+16,4.080317268473311e+16,45428642812588.664,0.0,0.0,0.0,0.0,0.0
537.6369923749302,4.0955003023608104e+16,4.100065153136974e+16,45648507761604.29,0.0,0.0,0.0,0.0,0.0
592.4006916124232,4.110072334328901e+16,4.1146534270982456e+16,45810927693453.03,0.0,0.0,0.0,0.0,0.0
652.6407607736655,4.120494766843617e+16,4.125087476460707e+16,45927096170943.44,0.0,0.0,0.0,0.0,0.0
718.9048368510321,4.127697323721726e+16,4.132298061311767e+16,46007375900426.79,0.0,0.0,0.0,0.0,0.0
791.7953205361354,4.132496335351757e+16,4.137102421922172e+16,46060865704234.92,0.0,0.0,0.0,0.0,0.0
871.9748525897489,4.13557259172322e+16,4.1401821070902744e+16,46095153670625.414,0.0,0.0,0.0,0.0,0.0
960.1723378487239,4.137465545136376e+16,4.142077170390116e+16,46116252537268.33,0.0,0.0,0.0,0.0,0.0
1057.1895716335964,4.137465545136376e+16,4.142077170390116e+16,46116252537268.33,0.0,0.0,0.0,0.0,0.0
1163.9085287969563,4.137465545136376e+16,4.142077170390116e+16,46116252537268.33,0.0,0.0,0.0,0.0,0.0
1281.299381676652,4.137465545136376e+16,4.142077170390116e+16,46116252537268.33,0.0,0.0,0.0,0.0,0.0
1410.4293198443174,4.137465545136376e+16,4.142077170390116e+16,46116252537268.33,0.0,0.0,0.0,0.0,0.0
1552.4722518287492,4.137465545136376e+16,4.142077170390116e+16,46116252537268.33,0.0,0.0,0.0,0.0,0.0
1708.7194770116243,4.137465545136376e+16,4.142077170390116e+16,46116252537268.33,0.0,0.0,0.0,0.0,0.0
1880.5914247127869,4.137465545136376e+16,4.142077170390116e+16,46116252537268.33,0.0,0.0,0.0,0.0,0.0
2069.6505671840655,4.137465545136376e+16,4.142077170390116e+16,46116252537268.33,0.0,0.0,0.0,0.0,0.0
2277.615623902472,4.137465545136376e+16,4.142077170390116e+16,46116252537268.33,0.0,0.0,0.0,0.0,0.0
2506.3771862927197,4.137465545136376e+16,4.142077170390116e+16,46116252537268.33,0.0,0.0,0.0,0.0,0.0
2758.0149049219917,4.137465545136376e+16,4.142077170390116e+16,46116252537268.33,0.0,0.0,0.0,0.0,0.0
3034.816395414191,4.137465545136376e+16,4.142077170390116e+16,46116252537268.33,0.0,0.0,0.0,0.0,0.0
3339.2980349556105,4.137465545136376e+16,4.142077170390116e+16,46116252537268.33,0.0,0.0,0.0,0.0,0.0
3674.227838451172,4.137465545136376e+16,4.142077170390116e+16,46116252537268.33,0.0,0.0,0.0,0.0,0.0
4042.6506222962894,4.137465545136376e+16,4.142077170390116e+16,46116252537268.33,0.0,0.0,0.0,0.0,0.0
4447.915684525919,4.137465545136376e+16,4.142077170390116e+16,46116252537268.33,0.0,0.0,0.0,0.0,0.0
4893.707252978511,4.137465545136376e+16,4.142077170390116e+16,46116252537268.33,0.0,0.0,0.0,0.0,0.0
5384.077978276362,4.137465545136376e+16,4.142077170390116e+16,46116252537268.33,0.0,0.0,0.0,0.0,0.0
5923.485776103998,4.137465545136376e+16,4.142077170390116e+16,46116252537268.33,0.0,0.0,0.0,0.0,0.0
6516.834353714399,4.137465545136376e+16,4.142077170390116e+16,46116252537268.33,0.0,0.0,0.0,0.0,0.0
7169.5177890858395,4.137465545136376e+16,4.142077170390116e+16,46116252537268.33,0.0,0.0,0.0,0.0,0.0
7887.469567994424,4.137465545136376e+16,4.142077170390116e+16,46116252537268.33,0.0,0.0,0.0,0.0,0.0
8677.216524793868,4.137465545136376e+16,4.142077170390116e+16,46116252537268.33,0.0,0.0,0.0,0.0,0.0
9545.938177273256,4.137465545136376e+16,4.142077170390116e+16,46116252537268.33,0.0,0.0,0.0,0.0,0.0
10501.531995000581,4.137465545136376e+16,4.142077170390116e+16,46116252537268.33,0.0,0.0,0.0,0.0,0.0
11552.68519450064,4.137465545136376e+16,4.142077170390116e+16,46116252537268.33,0.0,0.0,0.0,0.0,0.0
12708.953713950705,4.137465545136376e+16,4.142077170390116e+16,46116252537268.33,0.0,0.0,0.0,0.0,0.0
13980.849085345777,4.137465545136376e+16,4.142077170390116e+16,46116252537268.33,0.0,0.0,0.0,0.0,0.0
15379.933993880357,4.137465545136376e+16,4.142077170390116e+16,46116252537268.33,0.0,0.0,0.0,0.0,0.0
16918.927393268394,4.137465545136376e+16,4.142077170390116e+16,46116252537268.33,0.0,0.0,0.0,0.0,0.0
18611.820132595236,4.137465545136376e+16,4.142077170390116e+16,46116252537268.33,0.0,0.0,0.0,0.0,0.0
20474.00214585476,4.137465545136376e+16,4.142077170390116e+16,46116252537268.33,0.0,0.0,0.0,0.0,0.0
22522.40236044024,4.137465545136376e+16,4.142077170390116e+16,46116252537268.33,0.0,0.0,0.0,0.0,0.0
24775.642596484264,4.137465545136376e+16,4.142077170390116e+16,46116252537268.33,0.0,0.0,0.0,0.0,0.0
27254.206856132692,4.137465545136376e+16,4.142077170390116e+16,46116252537268.33,0.0,0.0,0.0,0.0,0.0
29980.627541745966,4.137465545136376e+16,4.142077170390116e+16,46116252537268.33,0.0,0.0,0.0,0.0,0.0
32979.69029592056,4.137465545136376e+16,4.142077170390116e+16,46116252537268.33,0.0,0.0,0.0,0.0,0.0
36278.65932551262,4.137465545136376e+16,4.142077170390116e+16,46116252537268.33,0.0,0.0,0.0,0.0,0.0
39907.525258063884,4.137465545136376e+16,4.142077170390116e+16,46116252537268.33,0.0,0.0,0.0,0.0,0.0
43899.277783870275,4.137465545136376e+16,4.142077170390116e+16,46116252537268.33,0.0,0.0,0.0,0.0,0.0
48290.20556225731,4.137465545136376e+16,4.142077170390116e+16,46116252537268.33,0.0,0.0,0.0,0.0,0.0
53120.22611848305,4.137465545136376e+16,4.142077170390116e+16,46116252537268.33,0.0,0.0,0.0,0.0,0.0
58433.24873033136,4.137465545136376e+16,4.142077170390116e+16,46116252537268.33,0.0,0.0,0.0,0.0,0.0
64277.57360336451,4.137465545136376e+16,4.142077170390116e+16,46116252537268.33,0.0,0.0,0.0,0.0,0.0
70706.33096370097,4.137465545136376e+16,4.142077170390116e+16,46116252537268.33,0.0,0.0,0.0,0.0,0.0
77777.96406007107,4.137465545136376e+16,4.142077170390116e+16,46116252537268.33,0.0,0.0,0.0,0.0,0.0
85556.76046607818,4.137465545136376e+16,4.142077170390116e+16,46116252537268.33,0.0,0.0,0.0,0.0,0.0
94113.436512686,4.137465545136376e+16,4.142077170390116e+16,46116252537268.33,0.0,0.0,0.0,0.0,0.0
103525.78016395462,4.137465545136376e+16,4.142077170390116e+16,46116252537268.33,0.0,0.0,0.0,0.0,0.0
113879.3581803501,4.137465545136376e+16,4.142077170390116e+16,46116252537268.33,0.0,0.0,0.0,0.0,0.0
125268.29399838512,4.137465545136376e+16,4.142077170390116e+16,46116252537268.33,0.0,0.0,0.0,0.0,0.0
137796.12339822366,4.137465545136376e+16,4.142077170390116e+16,46116252537268.33,0.0,0.0,0.0,0.0,0.0
151576.73573804603,4.137465545136376e+16,4.142077170390116e+16,46116252537268.33,0.0,0.0,0.0,0.0,0.0
166735.40931185064,4.137465545136376e+16,4.142077170390116e+16,46116252537268.33,0.0,0.0,0.0,0.0,0.0
183409.95024303574,4.137465545136376e+16,4.142077170390116e+16,46116252537268.33,0.0,0.0,0.0,0.0,0.0
201751.94526733932,4.137465545136376e+16,4.142077170390116e+16,46116252537268.33,0.0,0.0,0.0,0.0,0.0
221928.13979407327,4.137465545136376e+16,4.142077170390116e+16,46116252537268.33,0.0,0.0,0.0,0.0,0.0
244121.9537734806,4.137465545136376e+16,4.142077170390116e+16,46116252537268.33,0.0,0.0,0.0,0.0,0.0
268535.1491508287,4.137465545136376e+16,4.142077170390116e+16,46116252537268.33,0.0,0.0,0.0,0.0,0.0
295389.6640659116,4.137465545136376e+16,4.142077170390116e+16,46116252537268.33,0.0,0.0,0.0,0.0,0.0
324929.6304725028,4.137465545136376e+16,4.142077170390116e+16,46116252537268.33,0.0,0.0,0.0,0.0,0.0
357423.5935197531,4.137465545136376e+16,4.142077170390116e+16,46116252537268.33,0.0,0.0,0.0,0.0,0.0
393166.95287172846,4.137465545136376e+16,4.142077170390116e+16,46116252537268.33,0.0,0.0,0.0,0.0,0.0
432484.6481589014,4.137465545136376e+16,4.142077170390116e+16,46116252537268.33,0.0,0.0,0.0,0.0,0.0
475734.11297479155,4.137465545136376e+16,4.142077170390116e+16,46116252537268.33,0.0,0.0,0.0,0.0,0.0
523308.52427227073,4.137465545136376e+16,4.142077170390116e+16,46116252537268.33,0.0,0.0,0.0,0.0,0.0
575640.3766994978,4.137465545136376e+16,4.142077170390116e+16,46116252537268.33,0.0,0.0,0.0,0.0,0.0
633205.4143694476,4.137465545136376e+16,4.142077170390116e+16,46116252537268.33,0.0,0.0,0.0,0.0,0.0
696526.9558063925,4.137465545136376e+16,4.142077170390116e+16,46116252537268.33,0.0,0.0,0.0,0.0,0.0
766180.6513870318,4.137465545136376e+16,4.142077170390116e+16,46116252537268.33,0.0,0.0,0.0,0.0,0.0
842799.716525735,4.137465545136376e+16,4.142077170390116e+16,46116252537268.33,0.0,0.0,0.0,0.0,0.0
927080.6881783085,4.137465545136376e+16,4.142077170390116e+16,46116252537268.33,0.0,0.0,0.0,0.0,0.0
1019789.7569961395,4.137465545136376e+16,4.142077170390116e+16,46116252537268.33,0.0,0.0,0.0,0.0,0.0
1121769.7326957537,4.137465545136376e+16,4.142077170390116e+16,46116252537268.33,0.0,0.0,0.0,0.0,0.0
1233947.7059653292,4.137465545136376e+16,4.142077170390116e+16,46116252537268.33,0.0,0.0,0.0,0.0,0.0
1357343.4765618623,4.137465545136376e+16,4.142077170390116e+16,46116252537268.33,0.0,0.0,0.0,0.0,0.0
1493078.8242180487,4.137465545136376e+16,4.142077170390116e+16,46116252537268.33,0.0,0.0,0.0,0.0,0.0
1642387.7066398538,4.137465545136376e+16,4.142077170390116e+16,46116252537268.33,0.0,0.0,0.0,0.0,0.0
1806627.4773038393,4.137465545136376e+16,4.142077170390116e+16,46116252537268.33,0.0,0.0,0.0,0.0,0.0
1987291.2250342234,4.137465545136376e+16,4.142077170390116e+16,46116252537268.33,0.0,0.0,0.0,0.0,0.0
2186021.347537646,4.137465545136376e+16,4.142077170390116e+16,46116252537268.33,0.0,0.0,0.0,0.0,0.0
2404624.4822914107,4.137465545136376e+16,4.142077170390116e+16,46116252537268.33,0.0,0.0,0.0,0.0,0.0
2645087.9305205517,4.137465545136376e+16,4.142077170390116e+16,46116252537268.33,0.0,0.0,0.0,0.0,0.0
2909597.723572607,4.137465545136376e+16,4.142077170390116e+16,46116252537268.33,0.0,0.0,0.0,0.0,0.0
3200558.495929868,4.137465545136376e+16,4.142077170390116e+16,46116252537268.33,0.0,0.0,0.0,0.0,0.0
3520615.345522855,4.137465545136376e+16,4.142077170390116e+16,46116252537268.33,0.0,0.0,0.0,0.0,0.0
3872677.880075141,4.137465545136376e+16,4.142077170390116e+16,46116252537268.33,0.0,0.0,0.0,0.0,0.0
4259946.668082655,4.137465545136376e+16,4.142077170390116e+16,46116252537268.33,0.0,0.0,0.0,0.0,0.0
4685942.334890922,4.137465545136376e+16,4.142077170390116e+16,46116252537268.33,0.0,0.0,0.0,0.0,0.0
5154537.568380014,4.137465545136376e+16,4.142077170390116e+16,46116252537268.33,0.0,0.0,0.0,0.0,0.0
5669992.325218016,4.137465545136376e+16,4.142077170390116e+16,46116252537268.33,0.0,0.0,0.0,0.0,0.0
6236992.5577398185,4.137465545136376e+16,4.142077170390116e+16,46116252537268.33,0.0,0.0,0.0,0.0,0.0
6860692.8135138005,4.137465545136376e+16,4.142077170390116e+16,46116252537268.33,0.0,0.0,0.0,0.0,0.0
7546763.0948651815,4.137465545136376e+16,4.142077170390116e+16,46116252537268.33,0.0,0.0,0.0,0.0,0.0
8301440.4043517,4.137465545136376e+16,4.142077170390116e+16,46116252537268.33,0.0,0.0,0.0,0.0,0.0
9131585.44478687,4.137465545136376e+16,4.142077170390116e+16,46116252537268.33,0.0,0.0,0.0,0.0,0.0
10044744.98926556,4.137465545136376e+16,4.142077170390116e+16,46116252537268.33,0.0,0.0,0.0,0.0,0.0
11049220.488192115,4.137465545136376e+16,4.142077170390116e+16,46116252537268.33,0.0,0.0,0.0,0.0,0.0
12154143.537011327,4.137465545136376e+16,4.142077170390116e+16,46116252537268.33,0.0,0.0,0.0,0.0,0.0
13369558.89071246,4.137465545136376e+16,4.142077170390116e+16,46116252537268.33,0.0,0.0,0.0,0.0,0.0
14706515.779783707,4.137465545136376e+16,4.142077170390116e+16,46116252537268.33,0.0,0.0,0.0,0.0,0.0
16177168.35776208,4.137465545136376e+16,4.142077170390116e+16,46116252537268.33,0.0,0.0,0.0,0.0,0.0
17794886.19353829,4.137465545136376e+16,4.142077170390116e+16,46116252537268.33,0.0,0.0,0.0,0.0,0.0
19574375.81289212,4.137465545136376e+16,4.142077170390116e+16,46116252537268.33,0.0,0.0,0.0,0.0,0.0
21531814.394181333,4.137465545136376e+16,4.142077170390116e+16,46116252537268.33,0.0,0.0,0.0,0.0,0.0
23684996.83359947,4.137465545136376e+16,4.142077170390116e+16,46116252537268.33,0.0,0.0,0.0,0.0,0.0
26053497.51695942,4.137465545136376e+16,4.142077170390116e+16,46116252537268.33,0.0,0.0,0.0,0.0,0.0
28658848.268655367,4.137465545136376e+16,4.142077170390116e+16,46116252537268.33,0.0,0.0,0.0,0.0,0.0
31524734.095520906,4.137465545136376e+16,4.142077170390116e+16,46116252537268.33,0.0,0.0,0.0,0.0,0.0
31536000.0,4.137465545136376e+16,4.142077170390116e+16,46116252537268.33,0.0,0.0,0.0,0.0,0.0
