t(s),Total solute volume 1,Total retention volume 1,Total 1 volume 1,Total 2 volume 1,Total 3 volume 1,Total 4 volume 1,Total 5 volume 1,Total 6 volume 1
1.0,2672264339004783.0,2676635531502327.0,4371192497536.0103,0.0,0.0,0.0,0.0,0.0
2.1,4105614303026226.0,4114607415705513.0,6715813727530.155,326759261.6531334,1662730977.612465,35599587371.52708,766427476765.6172,1473282397378.969
3.3100000000000005,5258350648113682.0,5273067857858060.0,8601417510006.918,878661915.8256142,4471113185.958432,95736956809.37477,2060723342533.1401,3953982159911.4463
4.641000000000001,6287916515921543.0,6309719179595829.0,10285543563222.973,1655698575.7668128,8425099033.125489,180421670785.621,3883123100854.0566,7443494541832.609
6.105100000000002,7252978192713726.0,7283458749893421.0,11864156038231.088,2677055511.2936525,13622318842.196325,291757275989.8729,6278916508696.931,12029427982425.387
7.7156100000000025,8182959175290239.0,8223963065687591.0,13385384807682.062,3971950571.558661,20211448984.58063,432944287568.25604,9316982975129.805,17844394927412.473
9.487171000000004,9095266550762498.0,9148928279956272.0,14877703743970.617,5577566311.426204,28381694549.062115,608056506651.2115,13084986352271.658,25057023330019.64
11.435888100000005,1.0001388241046806e+16,1.0070175697234476e+16,16359904367109.506,7538766524.604862,38361346926.28375,822011916666.661,17688751702714.062,33870888087712.94
13.579476910000007,1.0909536682705964e+16,1.0996302840830128e+16,17845420278730.04,9908505787.133595,50419867789.859886,1080619519721.6434,23253273062631.582,44526516889463.8
15.937424601000009,1.1825958287615318e+16,1.1934000668199712e+16,19344469129439.87,12748612827.2051,64871875286.368484,1390667477925.423,29924605788052.59,57305017700848.65
18.53116706110001,1.275564560620905e+16,1.2888774210982038e+16,20865217548929.3,16130837527.77522,82082471687.89236,1760040704995.6511,37872384413270.9,72532748796565.25
21.384283767210015,1.370275080546915e+16,1.3865365318107784e+16,22414457497553.2,20138121878.646004,102473710539.65302,2197863760718.6672,47292869973351.31,90586709574591.88
24.522712143931017,1.467083452408648e+16,1.486801149994163e+16,23998013333769.617,24866080256.01543,126532128848.84943,2714667670650.033,58412488198823.07,111900408442818.12
27.97498335832412,1.566301366829411e+16,1.5900604304638048e+16,25620983572330.3,30424678896.612225,154817292701.04935,3322579840284.8613,71491831301932.28,136969999657774.7
31.772481694156536,1.66820380767485e+16,1.6966776984066018e+16,27287866289087.152,36940095203.04687,187971257730.77963,4035535305766.4214,86830078030668.31,166360516339097.4
35.949729863572195,1.773030891857631e+16,1.8069934102093136e+16,29002589215221.76,44556716582.74669,226728739370.85522,4869505379450.261,104769743879109.06,200712059587103.56
40.544702849929415,1.880984359828168e+16,1.9213227576455016e+16,30768452329689.55,53439207855.79803,271927631785.89386,5842736516037.889,125701609502954.88,240745812985001.12
45.59917313492236,1.9922189804443296e+16,2.0399481393985916e+16,32587987263383.195,63774539825.50988,324519328995.5059,6975988364906.408,150069598431829.2,287269721613619.06
51.1590904484146,2.1068293521427636e+16,2.163106927785782e+16,34462741398174.168,75773835650.68457,385578118766.0666,8292756158872.062,178375298505653.97,341183608413072.6
57.27499949325607,2.224833076580812e+16,2.290975439569992e+16,36393002628622.33,89673863654.26059,456308777372.99786,9819459624664.129,211181761775459.47,403483423222086.94
64.00249944258168,2.3461518684334696e+16,2.4236506001782176e+16,38377490364447.55,105737991870.89127,538051425511.0656,11585579214725.094,249116190451735.44,475264267999250.4
71.40274938683986,2.470592657908892e+16,2.5611312867055296e+16,40413046414150.09,124256425074.93942,632282733316.3734,13623721100653.6,292871131775117.8,557721849518074.2
79.54302432552385,2.5978309926168716e+16,2.7033016003617292e+16,42494363480727.14,145545569787.17737,740612688445.9946,15969595098286.299,343203864238272.5,652152096373084.6
88.49732675807624,2.7273989825940336e+16,2.8499182823967132e+16,44613787972668.66,169946414301.8133,864776352559.7789,18661894240839.41,400933755828091.06,759948837218342.2
98.34705943388387,2.8586796766837252e+16,3.0006041660688656e+16,46761228016562.805,197821865172.79785,1006620308351.8103,21742070654143.86,466937502517617.0,882599650489589.6
109.18176537727226,2.9909092017648324e+16,3.1548490389267148e+16,48924188451299.25,229553045635.40195,1168083825125.2273,25254009369824.56,542142303817793.94,1021680233109159.5
121.09994191499949,3.123187361297103e+16,3.3120186946434972e+16,51087944196332.016,265534634162.23215,1351175140933.915,29243609641872.09,627517198379385.8,1178847871471157.0
134.20993610649944,3.2544967845874436e+16,3.471372389277784e+16,53235853489069.945,306169404157.27155,1557943680617.5283,33758292379653.56,724062968571821.1,1355834819378030.8
148.6309297171494,3.3837302029799252e+16,3.632088443629053e+16,55349804058984.31,351862220677.6064,1790449511806.1377,38846462730187.04,832801232983913.6,1554442594985701.2
164.49402268886433,3.509725004215852e+16,3.7932973523650264e+16,57410778354752.18,403013856416.2928,2050731881989.6985,44556968625866.336,954763579517808.5,1776538409254955.8
181.94342495775078,3.631303836101548e+16,3.954121425175191e+16,59399517723099.85,460015100065.7261,2340779243854.8867,50938608589361.45,1090981836036341.2,2024055134043636.5
201.13776745352587,3.74731963582796e+16,4.11371963096691e+16,61297258980169.09,523241729767.68835,2662503682695.767,58039753624482.72,1242480798397243.8,2298996394975121.5
222.25154419887846,3.856703014787919e+16,4.271335896962866e+16,63086509512630.16,593050987679.6855,3017722981803.1055,65908155988514.2,1410274885374169.0,2603448496904697.0
245.47669861876633,3.958509443808925e+16,4.426348631307746e+16,64751819113576.62,669780187755.934,3408153541664.5938,74591018711010.47,1595370200773323.8,2939600902660859.0
271.024368480643,4.0519632331198264e+16,4.57831874977958e+16,66280499387569.98,753747987018.6101,3835416850701.915,84135390531793.64,1798773288408839.0,3309776823431654.0
299.1268053287073,4.1364950050839144e+16,4.727033103515766e+16,67663236712730.01,845258629350.733,4301061079597.7397,94588928991666.42,2021507416012646.0,3716475082892521.5
330.03948586157804,4.2117693531763784e+16,4.8725400584133624e+16,68894544673308.91,944609127158.2032,4806597622669.869,106001039118985.0,2264636507073598.0,4162423754754023.5
364.0434344477359,4.2776997834823496e+16,5.015174189738187e+16,69973008464994.266,1052098903343.665,5353550156352.341,118424348636411.78,2529295896414212.0,4650645159983046.0
401.44777789250946,4.3344488999503416e+16,5.155567701269469e+16,70901287923809.58,1168040926699.1523,5943511295213.89,131916428122071.84,2816728020048566.0,5184530724874884.0
442.5925556817604,4.38241308632379e+16,5.294647253572897e+16,71685866958338.98,1292772916797.8213,6578199600678.432,146541614180907.2,3128320123989541.0,5767923094844806.0
487.8518112499365,4.4221925188896344e+16,5.433616294994932e+16,72336563029821.4,1426666862330.4436,7259508007745.864,162372755120609.94,3465640286063088.0,6405201981969392.0
537.6369923749302,4.454548988437494e+16,5.573924548462922e+16,72865837220654.42,1570134976127.3384,7989534120838.774,179492681156376.0,3830467679114870.0,7101369733665384.0
592.4006916124232,4.480355439622476e+16,5.717227773645175e+16,73287968819863.22,1723630357483.052,8770583579677.501,197995211101601.4,4224813195399817.5,7862132750968593.0
652.6407607736655,4.500542081772539e+16,5.8653420408245576e+16,73618173825867.73,1887641053623.8948,9605139839176.555,217985545874921.44,4650927326783743.0,8693975763142891.0
718.9048368510321,4.516044192096584e+16,6.020197308110346e+16,73871751132959.92,2062676851954.308,10495796962564.139,239579960490279.9,5111293446706592.0,9604227527993242.0
791.7953205361354,4.527756254813361e+16,6.183794974217906e+16,74063332358224.72,2249248883581.5767,11445155837123.627,262904779022748.1,5608606135581738.0,1.0601118542361972e+16
871.9748525897489,4.536495946715105e+16,6.358173303943437e+16,74206292732407.02,2447842837544.2056,12455687879887.889,288094686338928.6,6145735622868885.0,1.1693833439625596e+16
960.1723378487239,4.54297991725325e+16,6.5453833442798504e+16,74312354920719.5,2658887142431.41,13529573136051.986,315290481416544.44,6725680480175344.0,1.289256249347482e+16
1057.1895716335964,4.547811627120377e+16,6.747476415321836e+16,74391390091568.92,2882717780597.2817,14668521242705.975,344636399470458.4,7351511171502901.0,1.420855768192642e+16
1163.9085287969563,4.551480014681295e+16,6.966502758004805e+16,74451396102792.39,3119541442467.838,15873583945787.047,376277120727012.56,8026306879979460.0,1.565419891103751e+16
1281.299381676652,4.55436669346292e+16,7.204519704719098e+16,74498615235439.22,3369398560077.112,17144967001603.436,410354547416969.94,8753087282978701.0,1.7243075301369008e+16
1410.4293198443174,4.556758863366168e+16,7.463606975784354e+16,74537745390275.3,3632127489144.0815,18481847921484.2,447004378596706.94,9534739871052996.0,1.8990085153731188e+16
1552.4722518287492,4.558865127923145e+16,7.745886447008216e+16,74572198820170.36,3907330865464.187,19882204779048.258,486352458906229.4,1.0373942295460492e+16,2.0911556702019428e+16
1708.7194770116243,4.560831828675361e+16,8.053543925608304e+16,74604369321324.1,4194345052165.141,21342660743936.164,528510835561917.0,1.1273078361405908e+16,2.3025390397244104e+16
1880.5914247127869,4.5627581590282024e+16,8.388850983974702e+16,74635879459639.3,4492213678769.809,22858349435354.613,573573437071580.2,1.2234145855419056e+16,2.53512225144005e+16
2069.6505671840655,4.564709025955789e+16,8.754185575448248e+16,74667790957336.19,4799666549364.012,24422807595028.844,621611291432152.6,1.325865449245093e+16,2.7910609445939812e+16
2277.615623902472,4.566725251042692e+16,9.152050850802469e+16,74700771557498.27,5115105607771.144,26027903668487.242,672667230264399.0,1.4347512878795274e+16,3.0727232107704276e+16
2506.3771862927197,4.568831164670638e+16,9.585092208866115e+16,74735219246732.86,5436600095180.806,27663813160898.39,726750074742498.6,1.5500904434273852e+16,3.382712030043547e+16
2758.0149049219917,4.571039928972755e+16,1.0056113102458757e+17,74771349325918.77,5761893403367.521,29319053504634.78,783828364538193.8,1.6718153602614754e+16,3.72388974714731e+16
3034.816395414191,4.5733570491035096e+16,1.0568090479680547e+17,74809251846152.52,6088424295570.047,30980592035370.836,843823768048327.0,1.7997585313625544e+16,4.099404695591937e+16
3339.2980349556105,4.575782542589201e+16,1.1124190997895746e+17,74848927094112.64,6413365028511.542,32634039968370.547,906604397703857.1,1.9336382477425692e+16,4.512720134584491e+16
3674.227838451172,4.578312180573406e+16,1.1727789341641254e+17,74890305895854.23,6733678372902.077,34263942538587.027,971978345655084.0,2.0730448236377428e+16,4.9676457101838696e+16
4042.6506222962894,4.5809381319165464e+16,1.2382490140212803e+17,74933260152732.58,7046194533577.447,35854170399267.83,1039687849731098.4,2.2174281713112544e+16,5.4683716895033576e+16
4447.915684525919,4.583649257622681e+16,1.3092155136285514e+17,74977607657518.64,7347707491790.838,37388409849910.48,1109404592761946.2,2.366087797616578e+16,6.019506249270154e+16
4893.707252978511,4.586431232693961e+16,1.3860937406471022e+17,75023114087646.36,7635088366424.554,38850739665438.586,1180726722736118.0,2.518166473993369e+16,6.6261161332981464e+16
5384.077978276362,4.5892666195597336e+16,1.4693324563429334e+17,75069494206335.83,7905411131698.538,40226270802759.14,1253178245749583.8,2.6726489686015372e+16,7.293771033079018e+16
5923.485776103998,4.592134980262327e+16,1.5594192947085216e+17,75116413697685.38,8156083645989.037,41501813135250.26,1326211473261657.8,2.828367291814797e+16,8.028592096634027e+16
6516.834353714399,4.595013089507543e+16,1.656887479847568e+17,75163492651666.73,8384974751187.985,42666522195522.195,1399213181440928.2,2.98401385517496e+16,8.837305036689245e+16
7169.5177890858395,4.59787529278466e+16,1.7623240256704784e+17,75210311422106.94,8590526592071.622,43712470714329.8,1471515043270614.5,3.13816373640447e+16,9.72729839231572e+16
7887.469567994424,4.600694038809389e+16,1.876379568152792e+17,75256419336178.47,8771840717173.825,44635086751249.016,1542408704644449.2,3.2893068389182644e+16,1.0706687598655342e+17
8677.216524793868,4.603440600322996e+16,1.9997799245852646e+17,75301346484940.27,8928727352522.43,45433404434965.76,1611165580364459.2,3.4358901046971856e+16,1.1784385634968778e+17
9545.938177273256,4.606085979759354e+16,2.1333393950741475e+17,75344618537875.86,9061709734983.686,46110086028154.93,1677061042038235.0,3.5763690787163604e+16,1.2970181146631824e+17
10501.531995000581,4.608601975707701e+16,2.277975721248516e+17,75385774187662.12,9171979538222.854,46671195129527.02,1739402171587646.8,3.7092670617548904e+16,1.4274825062978286e+17
11552.68519450064,4.610962363024633e+16,2.4347265026982394e+17,75424384453965.03,9261304856588.047,47125728467338.23,1797557698121173.2,3.833238904563371e+16,1.57101268478045e+17
12708.953713950705,4.613144115808585e+16,2.6047667556996224e+17,75460072688364.62,9331898194558.91,47484944179495.055,1850988184623003.5,3.947135322789822e+16,1.7289061608429258e+17
13980.849085345777,4.6151285814244136e+16,2.789427199393688e+17,75492533778574.53,9386257415319.29,47761552492346.59,1899274070771883.8,4.050062632910431e+16,1.9025889338156224e+17
15379.933993880357,4.6169024994430504e+16,2.9902127938802336e+17,75521550815846.94,9426996508365.367,47968854588263.75,1942138911584064.2,4.141432242554297e+16,2.0936287565455347e+17
16918.927393268394,4.618458756095426e+16,3.208821055583156e+17,75547007436024.36,9456684401610.44,48119922401575.33,1979465180340513.8,4.220994290846612e+16,2.3037498629431546e+17
18611.820132595236,4.619796776270491e+16,3.4471597565230746e+17,75568894231685.36,9477708399985.37,48226903720734.07,2011300406116773.8,4.288850691096789e+16,2.5348492706616454e+17
20474.00214585476,4.62092248298574e+16,3.7073637845943405e+17,75587308089178.03,9492174387210.664,48300514355554.33,2037852217481485.8,4.3454445352926344e+16,2.789014760623378e+17
22522.40236044024,4.621847797452768e+16,3.991811194842591e+17,75602444010894.67,9501849582140.59,48349746841094.914,2059472015469367.5,4.3915252728997576e+16,3.068544627248304e+17
24775.642596484264,4.622589706609724e+16,4.30313879151979e+17,75614579862341.2,9508146787550.654,48381790275787.195,2076628364563868.0,4.428091985424792e+16,3.3759692935014464e+17
27254.206856132692,4.623168981193685e+16,4.644257903920938e+17,75624055402881.52,9512143203885.916,48402126045213.89,2089872556061862.5,4.456319987204902e+16,3.7140748982739405e+17
29980.627541745966,4.623608675857825e+16,5.0183713007369664e+17,75631247751258.3,9514623166339.996,48414745282818.02,2099799906629401.5,4.477478344110098e+16,4.085928993511879e+17
32979.69029592056,4.623932573348165e+16,5.4289923729963635e+17,75636545936062.89,9516133102625.322,48422428518996.59,2107010962944439.0,4.492847197270043e+16,4.4949085352295155e+17
36278.65932551262,4.6241637399338136e+16,5.879967764151715e+17,75640327266044.7,9517038350666.818,48427034797391.12,2112076728926544.0,4.503643663002478e+16,4.944730412564668e+17
39907.525258063884,4.6243233368252856e+16,6.37550452459607e+17,75642937887769.66,9517574390155.066,48429762368177.195,2115511290387321.0,4.510963499818052e+16,5.4394848252814074e+17
43899.277783870275,4.624429786209869e+16,6.920202638534007e+17,75644679143964.56,9517888468232.172,48431360502926.86,2117753919200434.8,4.5157429787411944e+16,5.98367188356575e+17
48290.20556225731,4.624498330478195e+16,7.51909346720641e+17,75645800363521.89,9518070614163.975,48432287315475.08,2119161168807689.2,4.5187420469673624e+16,6.582241856190853e+17
53120.22611848305,4.624540962212323e+16,8.177684346327233e+17,75646497716272.55,9518175099023.773,48432818961790.945,2120007966072690.2,4.520546663804574e+16,7.240639529147043e+17
58433.24873033136,4.6245666533202664e+16,8.902009338296895e+17,75646917961077.66,9518234395928.533,48433088007787.06,2120495573755442.2,4.521585778148721e+16,7.964853157008808e+17
64277.57360336451,4.624581782791006e+16,9.698686023649637e+17,75647165442871.38,9518265535065.627,48433246448736.04,2120763738234033.0,4.52215722414303e+16,8.76146849879963e+17
70706.33096370097,4.624590658556943e+16,1.0574978229752895e+18,75647310629078.9,9518283802967.871,48433339398767.336,2120904378601635.0,4.5224569002456184e+16,9.637728440748319e+17
77777.96406007107,4.624596042025166e+16,1.1538864735148088e+18,75647398689685.47,9518294883101.334,48433395776272.35,2120974686380940.0,4.522606690695714e+16,1.060159872411869e+18
85556.76046607818,4.624599613025702e+16,1.2599114191045197e+18,75647457102675.28,9518302232854.488,48433433173000.97,2121008269347611.2,4.522678217263619e+16,1.166184033339772e+18
94113.436512686,4.624602342179763e+16,1.3765366733218847e+18,75647501745079.08,9518307849938.082,48433461753627.59,2121023749511115.0,4.522711164299587e+16,1.2828089152362286e+18
103525.78016395462,4.6246047640623384e+16,1.5048222968351286e+18,75647541361259.47,9518312834602.43,48433487116402.98,2121030840921775.5,4.52272623212645e+16,1.4110943566910065e+18
113879.3581803501,4.624607163866071e+16,1.6459341169405448e+18,75647580616283.1,9518317773824.615,48433512247961.195,2121031939071890.8,4.522733573345871e+16,1.5522060782187162e+18
125268.29399838512,4.62460969833844e+16,1.801154361121837e+18,75647622074162.42,9518322990218.773,48433538789815.15,2121033098846296.2,4.5227359920165864e+16,1.707426271635586e+18
137796.12339822366,4.6246124190484984e+16,1.9718933702415148e+18,75647666578442.52,9518328589923.143,48433567282013.22,2121034343843032.0,4.522738588415052e+16,1.8781652262605875e+18
151576.73573804603,4.624615395908481e+16,2.1597023535837647e+18,75647715272720.08,9518334716829.494,48433598456699.9,2121035706053933.0,4.522741429259273e+16,2.0659741499775823e+18
166735.40931185064,4.6246186666196856e+16,2.366287488503004e+18,75647768773697.8,9518341448533.896,48433632708696.42,2121037202731128.8,4.522744550528159e+16,2.2725592193858627e+18
183409.95024303574,4.6246222634262904e+16,2.593525394628376e+18,75647827608812.77,9518348851400.518,48433670375674.516,2121038848629542.8,4.5227479829926104e+16,2.49979705346872e+18
201751.94526733932,4.6246262196002424e+16,2.8434801436842424e+18,75647892322314.17,9518356993908.936,48433711806069.234,2121040658974415.5,4.522751758404321e+16,2.7497517232841057e+18
221928.13979407327,4.6246305712169224e+16,3.1184219612745293e+18,75647963504308.52,9518365950308.695,48433757377674.21,2121042650273843.2,4.5227559111902984e+16,3.024693453713347e+18
244121.9537734806,4.624635357831894e+16,3.420847789263505e+18,75648041801830.05,9518375802012.19,48433807504728.87,2121044840628438.0,4.5227604790986984e+16,3.327119185828466e+18
268535.1491508287,4.624640622921931e+16,3.7535038931483315e+18,75648127926054.0,9518386638502.305,48433862642536.37,2121047249933168.8,4.522765503619702e+16,3.6597751842557696e+18
295389.6640659116,4.624646414297992e+16,4.119410716653073e+18,75648222659053.08,9518398558182.514,48433923291789.72,2121049900066325.2,4.522771030379635e+16,4.025681891761726e+18
324929.6304725028,4.6246527845424984e+16,4.5218902054543734e+18,75648326860948.84,9518411669276.75,48433990003149.5,2121052815089592.5,4.522777109558223e+16,4.4281612529697326e+18
357423.5935197531,4.624659791485895e+16,4.964595843533058e+18,75648441477709.27,9518426090810.379,48434063382235.95,2121056021466201.0,4.522783796343434e+16,4.870866750702345e+18
393166.95287172846,4.624667498729789e+16,5.451545669274408e+18,75648567549703.02,9518441953686.729,48434144095106.56,2121059548300204.5,4.5227911514306104e+16,5.357816422070899e+18
432484.6481589014,4.624675976221511e+16,5.987158564283018e+18,75648706221101.14,9518459401869.88,48434232874273.445,2121063427599506.2,4.5227992415708984e+16,5.893429147278989e+18
