t(s),Total solute volume 1,Total retention volume 1,Total 1 volume 1,Total 2 volume 1,Total 3 volume 1,Total 4 volume 1,Total 5 volume 1,Total 6 volume 1
1.0,1944561562247345.2,1945125870648171.2,564308400828.264,0.0,0.0,0.0,0.0,0.0
2.1,2988574894167818.5,2989446087472587.5,867279259249.3572,3284476.1005017213,10603166.37900138,114864604.60372095,1588913234.6547961,2196380032.5044565
3.3100000000000005,3829050740624408.5,3830172454428150.5,1111183892410.0557,8833754.831128828,28517720.110765032,308985972.8326546,4274167151.3841033,5909406735.667946
4.641000000000001,4580563228579104.0,4581912352461779.0,1329271513376.8186,16649381.004508791,53748648.310086645,582468229.9565035,8057202912.021394,11142300128.796497
6.105100000000002,5285860723047008.0,5287426788092284.0,1533947623476.7473,26926286.025422245,86925241.63556108,942192051.5469798,13033200334.965895,18028177879.671024
7.7156100000000025,5966440096118790.0,5968219229860835.0,1731450577672.1982,39960878.8421335,129004387.3204266,1398607092.5297558,19346707720.64348,26768884301.41672
9.487171000000004,6635073682539168.0,6637066175088215.0,1925486885324.7002,56130460.71727103,181204114.5533586,1965019067.291797,27181780078.19855,37621529992.069244
11.435888100000005,7300238097526086.0,7302447250209432.0,2118516445426.3452,75890531.37111825,244994897.95442763,2657504044.9906197,36760792906.44517,50897055519.99416
13.579476910000007,7968022531670554.0,7970454064974860.0,2312306330452.0903,99778907.13825825,322112952.0058658,3495063166.0534606,48346580861.15007,66963437966.06159
15.937424601000009,8643051024404134.0,8645712763207099.0,2508198428504.214,128423173.9731508,414584291.21227056,4499896831.1675825,62246228049.38421,86251242108.10246
18.53116706110001,9328947077732892.0,9331848783283922.0,2707244273400.6323,162549880.07191125,524754406.15118414,5697743306.229197,78815748323.76967,109260481705.07838
21.384283767210015,1.0028552114955276e+16,1.0031705393124338e+16,2910268441012.577,202994318.06579173,655319842.7727957,7118242350.478452,98465110834.7655,136568060705.3901
24.522712143931017,1.0743994881223236e+16,1.0747413123412264e+16,3117888689193.2803,250709755.13399646,809357999.408928,8795284851.45211,121663071484.04974,168835075744.23517
27.97498335832412,1.147666561201084e+16,1.1480363939341858e+16,3330508461527.355,306774882.42771304,990351175.240511,10767306465.665533,148941229735.0114,206813207232.78284
31.772481694156536,1.2227133067040444e+16,1.2231128258060956e+16,3548292810741.924,372398228.6323778,1202200818.2154863,13077482358.916824,180896717741.10706,251349410626.52048
35.949729863572195,1.2995036854416484e+16,1.299934724466288e+16,3771137151382.814,448918383.29688644,1449228245.8227322,15773783658.645819,218192977401.86835,303388187316.3914
40.544702849929415,1.3778983950337726e+16,1.3783629299451742e+16,3998637230041.282,537799107.3428439,1736158860.3876057,18908864304.83883,261558192611.24777,363970869114.49164
45.59917313492236,1.457647367732775e+16,1.4581475005814422e+16,4230067354192.609,640618733.3401216,2068087930.2996514,22539758306.491302,311781100539.62146,434231566940.59674
51.1590904484146,1.5383869060189572e+16,1.5389248462894176e+16,4464372079766.742,759053627.28058,2450427200.283202,26727380253.69532,369704083444.0155,515389680303.73065
57.27499949325607,1.619642532043961e+16,1.6202205767186956e+16,4700174480203.015,894855864.0297961,2888832822.0085464,31535835164.09501,436213625482.5281,608739117789.3177
64.00249944258168,1.700837962072874e+16,1.7014584756466844e+16,4935802190139.973,1049825660.9831295,3389116362.937588,37031557392.551155,512228407775.00555,715634640775.7577
71.40274938683986,1.7813101022460772e+16,1.7819754980179448e+16,5169330922864.94,1225779550.2945416,3957142058.304649,43282313545.083626,598685525238.364,837476035399.4452
79.54302432552385,1.860329623592021e+16,1.8610423476186532e+16,5398644178646.372,1424515791.419671,4598715154.250298,50356122650.26552,696525561768.5903,975691172278.7728
88.49732675807624,1.937126465424398e+16,1.9378889845931616e+16,5621507255144.47,1647779153.3981895,5319468216.434456,58320169085.129074,806677567639.8052,1131719448380.3462
98.34705943388387,2.010919446602913e+16,2.011734242393624e+16,5835653178762.012,1897227898.290105,6124754544.6388445,67239808946.30621,930045330985.2635,1306997605984.7937
109.18176537727226,2.0809489428009524e+16,2.081818512440837e+16,6038877533485.153,2174406469.120141,7019560003.039828,77177795199.01161,1067496675549.2543,1502950428091.1572
121.09994191499949,2.1465112632192348e+16,2.147438130042682e+16,6229138221478.595,2480727851.852967,8008446080.725308,88193865001.97217,1219857766325.8486,1720989207755.3752
134.20993610649944,2.2069929425573104e+16,2.207979677388706e+16,6404654977753.942,2817469618.9596176,9095537119.813078,100344836359.13843,1387914456353.3628,1962521036776.392
148.6309297171494,2.2619027275197604e+16,2.2629519827244108e+16,6564002194413.988,3185787049.195057,10284562669.798403,113685342794.087,1572422452739.537,2228971706802.7197
164.49402268886433,2.3108987016355236e+16,2.312013259066719e+16,6706187636366.197,3586745292.1582856,11578961323.12369,128269288111.95676,1774127435484.1858,2521824245413.562
181.94342495775078,2.353807893676179e+16,2.3549907270531356e+16,6830709344575.895,4021370272.416658,12982045046.616632,144152026770.44437,1993795204834.602,2842673778065.624
201.13776745352587,2.390635970694946e+16,2.3918903219927624e+16,6937583765069.187,4490715058.470463,14497213437.155859,161393173512.6811,2232250525093.41,3193297586004.7983
222.25154419887846,2.4215652915324444e+16,2.4228947598264264e+16,7027340100225.371,4995935128.703585,16128196698.89711,180059830895.6049,2490421743183.6177,3575737133608.916
245.47669861876633,2.446940675707364e+16,2.4483493157234664e+16,7100979010343.097,5538362927.6320095,17879296329.285713,200229914623.07825,2769386757536.344,3992386819219.4775
271.024368480643,2.4672436161033588e+16,2.468736042668847e+16,7159897779318.06,6119570023.798075,19755585779.983906,221995178282.5844,3070414830327.2354,4446082711134.23
299.1268053287073,2.483057129917759e+16,2.4846386246965388e+16,7205788312784.1,6741404729.630885,21763031936.074306,245463523069.01114,3394999191084.883,4940192324225.163
330.03948586157804,2.495024742675214e+16,2.4967013537569996e+16,7240518110225.031,7405994666.373028,23908503256.253193,270760165252.79327,3744870339732.617,5478647704743.556
364.0434344477359,2.5038079345769196e+16,2.505586574407755e+16,7266006775456.18,8115707461.644098,26199643113.609802,298027533913.65356,4121999074992.594,6066049573395.251
401.44777789250946,2.5100465965910016e+16,2.511935124972137e+16,7284111260612.063,8873068033.769608,28644602614.59028,327423634423.8561,4528570763254.578,6707660482390.443
442.5925556817604,2.514326457889958e+16,2.5163337536895756e+16,7296531341252.431,9680636680.948448,31251647079.35402,359119124958.6933,4966945721300.58,7409429524902.518
487.8518112499365,2.517156247054303e+16,2.5192922678263784e+16,7304743338592.028,10540857188.25097,34028665691.953846,393293325569.1267,5439604032013.585,8177997501745.732
537.6369923749302,2.518955709015948e+16,2.5212315405389228e+16,7309965344889.864,11455887174.229069,36982623815.34987,430129546106.57,5949080940589.165,9020700887158.654
592.4006916124232,2.5200539063363044e+16,2.5224818053915076e+16,7313152293791.522,12427423273.596773,40118998635.807396,469810115336.2831,6497898116834.041,9945583604201.162
652.6407607736655,2.5206958398431572e+16,2.5232892741916092e+16,7315015173300.071,13456531613.810238,43441231897.20613,512511406358.2258,7088494863497.95,10961424277848.887
718.9048368510321,2.5210545962379304e+16,2.5238282856558804e+16,7316056277914.847,14543490296.699942,46950221390.577675,558399002068.6234,7723161257666.762,12077783930186.416
791.7953205361354,2.5212460652445028e+16,2.524216026758295e+16,7316611917533.321,15687646617.926378,50643860020.97021,607622976002.7665,8403972884103.634,13305075853686.416
871.9748525897489,2.5213436806668324e+16,2.524527280039619e+16,7316895195735.871,16887288904.465372,54516622064.93985,660313127546.4281,9132724934226.352,14654656559418.777
960.1723378487239,2.5213914104954864e+16,2.524807420873316e+16,7317033706841.454,18139531996.22394,58559193474.71063,716573940789.5684,9910862480595.05,16138934924542.594
1057.1895716335964,2.5214140883847064e+16,2.525082756081882e+16,7317099517668.698,19440216684.6255,62758147238.97301,776479044094.6813,10739403844714.195,17771496201333.266
1163.9085287969563,2.521424922626362e+16,2.5253680394938216e+16,7317130958443.398,20783826317.12721,67095674159.734924,840065020972.2101,11618854992621.678,19567238202104.145
1281.299381676652,2.5214305163665308e+16,2.5256714980952124e+16,7317147191376.913,22163427365.286255,71549390989.74214,907324537136.8389,12549114473039.8,21542518266934.617
1410.4293198443174,2.5214339659544652e+16,2.5259979359760776e+16,7317157202019.146,23570644083.659866,76092258624.0235,978198877765.9661,13529370198768.967,23715311034842.055
1552.4722518287492,2.52143662943559e+16,2.5263505087047868e+16,7317164931393.547,24995679719.972706,80692650571.12947,1052570115189.3252,14557991117322.088,26105378197776.316
1708.7194770116243,2.5214390608588092e+16,2.5267316646420536e+16,7317171987340.049,26427397622.30625,85314614787.68393,1130253243473.7656,15632418424291.611,28734452164964.574
1880.5914247127869,2.5214414672045308e+16,2.5271436109972012e+16,7317178970512.114,27853474792.40345,89918369388.06323,1210988723357.5242,16749062452665.576,31626435936030.22
2069.6505671840655,2.521443915180433e+16,2.5275885329932428e+16,7317186074494.221,29260637824.80086,94461064317.2413,1294435981549.392,17903212762169.812,34807621607731.723
2277.615623902472,2.521446417783917e+16,2.5280686972707652e+16,7317193337004.6045,30634986654.481968,98897826492.7661,1380168502265.1235,19088970250877.96,38306929965228.41
2506.3771862927197,2.5214489678090892e+16,2.52858650804155e+16,7317200737131.857,31962405071.98239,103183085055.0941,1467671229710.0046,20299211229409.31,42156173638217.34
2758.0149049219917,2.5214515498804836e+16,2.5291445489829204e+16,7317208230256.655,33229048667.34729,107272146578.92534,1556341055073.2236,21525594156783.902,46390346386977.04
3034.816395414191,2.5214541445540332e+16,2.5297456258438176e+16,7317215759952.712,34421891128.85874,111122958669.48376,1645491171922.1013,22758619879781.48,51047941236353.03
3339.2980349556105,2.521456729792606e+16,2.530392816431139e+16,7317223262268.612,35529299442.988655,114697966860.02832,1734360027549.788,23987755438505.336,56171300390679.16
3674.227838451172,2.5214592817218104e+16,2.5310895310486828e+16,7317230667921.327,36541598764.43183,117965938162.195,1822125451965.26,25201629483404.04,61807000128486.15
4042.6506222962894,2.5214617752926324e+16,2.531839584830465e+16,7317237904219.092,37451580199.05283,120903600324.72945,1907924290952.3584,26388303818494.355,68006274184124.61
4447.915684525919,2.521464185033305e+16,2.5326472824406396e+16,7317244897243.221,38254901340.760735,123496934874.152,1990877493036.1475,27535620376967.168,74825479469919.08
4893.707252978511,2.5214664859244196e+16,2.5335175147677844e+16,7317251574387.9375,38950331895.380684,125741970055.79704,2070120104280.1047,28631616076398.53,82326608376631.94
5384.077978276362,2.521468654376547e+16,2.534455866353558e+16,7317257867197.055,39539806329.93925,127644950802.21913,2144835031929.757,29664989800343.72,90577852313505.7
5923.485776103998,2.5214706692613292e+16,2.53546873136955e+16,7317263714356.529,40028262380.36089,129221817396.01454,2214288796148.495,30625596876833.89,99654221615029.73
6516.834353714399,2.5214725129276224e+16,2.536563435086429e+16,7317269064642.984,40423267158.33691,130496998446.38702,2277866874886.1914,31504937929300.277,109638227453644.44
7169.5177890858395,2.5214741721197904e+16,2.537748357113654e+16,7317273879588.88,40734458634.93326,131501607852.47105,2335105762109.655,32296602270091.008,120620631960287.48
7887.469567994424,2.5214756387090508e+16,2.5390330523995636e+16,7317278135604.545,40972855203.90515,132271215892.24489,2385718620868.308,32996622704565.887,132701273373009.12
8677.216524793868,2.5214769101520108e+16,2.5404283662386628e+16,7317281825309.19,41150104977.342384,132843425750.49223,2429611532048.444,33603700264924.227,145989973713499.62
9545.938177273256,2.521477989607233e+16,2.5419465404544068e+16,7317284957868.843,41277755084.51715,133255514621.39069,2466887897483.8057,34119265108030.74,160607537238659.94
10501.531995000581,2.52147888566952e+16,2.5436013095399252e+16,7317287558225.528,41366616950.679016,133542384658.90367,2497839570191.6978,34547353837472.06,176686848736530.0
11552.68519450064,2.5214796117221492e+16,2.545407987737946e+16,7317289665217.214,41426286510.23867,133735014095.79036,2522924684051.3354,34894302867094.08,194374081640978.6
12708.953713950705,2.5214801849531804e+16,2.547383550569696e+16,7317291328723.368,41464851802.38112,133859513282.46257,2542733769192.5713,35168279765668.41,213830026936463.56
13980.849085345777,2.521480625127286e+16,2.549546716793442e+16,7317292606100.723,41488790065.17613,133936792477.29224,2557947309652.431,35378696240822.35,235231554922447.94
15379.933993880357,2.5214809532392052e+16,2.5519180387337024e+16,7317293558275.611,41503028864.792206,133982759186.09447,2569289124424.753,35535563357188.2,258773223116989.1
16918.927393268394,2.5214811901922268e+16,2.5545200099566468e+16,7317294245909.0205,41511126581.353424,134008900817.06784,2577480554663.086,35648857904812.46,284669044911432.0
18611.820132595236,2.5214813556393144e+16,2.5573771991163776e+16,7317294726033.495,41515519770.037384,134023083227.35893,2583200245179.549,35727966142059.35,313154435054420.1
20474.00214585476,2.5214814670957616e+16,2.5605164174531852e+16,7317295049478.111,41517788307.264656,134030406685.16534,2587053312375.955,35781257361520.01,344488349655851.6
22522.40236044024,2.5214815393858804e+16,2.563966925171069e+16,7317295259262.745,41518900776.18266,134033998039.42346,2589552079394.492,35815817441003.52,378955640173383.2
24775.642596484264,2.5214815844319416e+16,2.5677606792738292e+16,7317295389985.603,41519417722.35324,134035666883.55168,2591108674873.223,35837346478717.67,416869642790660.6
27254.206856132692,2.5214816113449652e+16,2.5719326229441972e+16,7317295468086.7,41519644853.580696,134035668314.17595,2592038043480.289,35850200432452.836,458575026735194.9
29980.627541745966,2.5214816267287784e+16,2.5765210153566308e+16,7317295512730.256,41519645106.896126,134035669131.93895,2592568663663.185,35857539356157.8,504450927431716.56
32979.69029592056,2.5214816351316852e+16,2.581567799007536e+16,7317295537115.339,41519645245.26137,134035669578.61494,2592857717404.585,35861537211453.625,554914392977719.06
36278.65932551262,2.521481639515426e+16,2.5871190039271744e+16,7317295549836.868,41519645317.4456,134035669811.64276,2593007612247.174,35863610381985.97,610424175258314.1
39907.525258063884,2.5214816417046304e+16,2.59322518810119e+16,7317295556189.908,41519645353.493866,134035669928.0153,2593081440980.0776,35864631494519.305,671484900158636.6
43899.277783870275,2.521481642760863e+16,2.599941915726137e+16,7317295559255.077,41519645370.88625,134035669984.1619,2593115901336.602,35865108109630.055,738651654767168.5
48290.20556225731,2.5214816435497188e+16,2.6073302543742748e+16,7317295561544.325,41519645383.8758,134035670026.09514,2593115902147.8296,35865108120847.01,812535033345642.4
53120.22611848305,2.5214816436331716e+16,2.6154574198553696e+16,7317295561786.482,41519645385.25,134035670030.53137,2593115902233.6523,35865108122033.58,893806687320496.0
58433.24873033136,2.5214816437127476e+16,2.6243972943417616e+16,7317295562017.45,41519645386.56029,134035670034.76154,2593115902315.484,35865108123165.02,983205431387144.8
64277.57360336451,2.521481643800109e+16,2.634231147165087e+16,7317295562270.954,41519645387.99879,134035670039.40541,2593115902405.322,35865108124407.195,1081543958745263.8
70706.33096370097,2.5214816438962096e+16,2.6450483742458276e+16,7317295562549.814,41519645389.581154,134035670044.51349,2593115902504.1445,35865108125773.47,1189716228589990.2
77777.96406007107,2.5214816440019084e+16,2.656947310694511e+16,7317295562856.582,41519645391.32176,134035670050.1326,2593115902612.8423,35865108127276.445,1308705592017802.8
85556.76046607818,2.5214816441181828e+16,2.670036124646505e+16,7317295563193.996,41519645393.236305,134035670056.31316,2593115902732.4116,35865108128929.6,1439593730372923.2
94113.436512686,2.521481644246082e+16,2.6844338004624544e+16,7317295563565.165,41519645395.34238,134035670063.11218,2593115902863.943,35865108130748.22,1583570487251089.0
103525.78016395462,2.521481644386775e+16,2.70027122022723e+16,7317295563973.448,41519645397.659096,134035670070.59102,2593115903008.625,35865108132748.56,1741944683489346.8
113879.3581803501,2.5214816445415364e+16,2.7176923533728724e+16,7317295564422.57,41519645400.207436,134035670078.81758,2593115903167.771,35865108134949.05,1916156013395355.5
125268.29399838512,2.5214816447117732e+16,2.736855565232451e+16,7317295564916.577,41519645403.01055,134035670087.86694,2593115903342.829,35865108137369.51,2107788130285728.2
137796.12339822366,2.521481644899036e+16,2.757935056411326e+16,7317295565460.005,41519645406.09403,134035670097.82103,2593115903535.402,35865108140032.02,2318583040198432.0
151576.73573804603,2.5214816451050108e+16,2.781122446049524e+16,7317295566057.776,41519645409.48582,134035670108.77081,2593115903747.2266,35865108142960.78,2550456934516795.0
166735.40931185064,2.5214816453315996e+16,2.8066285133548276e+16,7317295566715.311,41519645413.21683,134035670120.81506,2593115903980.23,35865108146182.336,2805517605299873.0
183409.95024303574,2.5214816455808372e+16,2.8346851132218304e+16,7317295567438.592,41519645417.32099,134035670134.06409,2593115904236.538,35865108149726.19,3086083601473017.0
201751.94526733932,2.521481645854999e+16,2.8655472833315176e+16,7317295568234.213,41519645421.83541,134035670148.63776,2593115904518.478,35865108153624.34,3394705299823302.5
221928.13979407327,2.5214816461565744e+16,2.8994955618622696e+16,7317295569109.381,41519645426.80125,134035670164.66896,2593115904828.6016,35865108157912.26,3734188082109467.5
244121.9537734806,2.521481646488313e+16,2.9368385368527524e+16,7317295570072.076,41519645432.26373,134035670182.30328,2593115905169.7437,35865108162629.0,4107617828690927.5
268535.1491508287,2.52148164685322e+16,2.9779156503569684e+16,7317295571131.025,41519645438.27239,134035670201.7006,2593115905544.9976,35865108167817.39,4518388960077350.0
295389.6640659116,2.521481647254615e+16,3.023100282840194e+16,7317295572295.861,41519645444.88198,134035670223.03801,2593115905957.7734,35865108173524.55,4970235280888267.0
324929.6304725028,2.521481647696151e+16,3.0728031458034024e+16,7317295573577.191,41519645452.15247,134035670246.5085,2593115906411.8237,35865108179802.44,5467263906097039.0
357423.5935197531,2.521481648181835e+16,3.1274760134147196e+16,7317295574986.643,41519645460.149895,134035670272.32625,2593115906911.2856,35865108186708.086,6013992577344492.0
393166.95287172846,2.5214816487160816e+16,3.1876158269947508e+16,7317295576537.024,41519645468.947075,134035670300.72554,2593115907460.6714,35865108194304.23,6615390707792537.0
432484.6481589014,2.521481649303754e+16,3.2537692095765196e+16,7317295578242.4375,41519645478.62392,134035670331.96468,2593115908065.011,35865108202659.97,7276924527722862.0
475734.11297479155,2.521481649950192e+16,3.3265374314688268e+16,7317295580118.374,41519645489.268326,134035670366.32738,2593115908729.7725,35865108211851.19,8004606740169796.0
523308.52427227073,2.521481650661265e+16,3.4065818718282596e+16,7317295582181.889,41519645500.97703,134035670404.12613,2593115909461.0073,35865108221961.51,8805051136640440.0
575640.3766994978,2.521481651443433e+16,3.4946300257259572e+16,7317295584451.745,41519645513.85656,134035670445.70433,2593115910265.351,35865108233082.67,9685532667781418.0
