t(s),Total solute volume 1,Total retention volume 1,Total 1 volume 1,Total 2 volume 1,Total 3 volume 1,Total 4 volume 1,Total 5 volume 1,Total 6 volume 1
1.0,2287128826824782.5,2288732104112401.5,1603277287627.5732,0.0,0.0,0.0,0.0,0.0
2.1,3515057013644354.0,3517524280192344.0,2464054896728.5815,1060389.3510589693,4317456.09816808,66233002.24739231,1153882152.0830078,1986158263.43832
3.3100000000000005,4503594719557925.5,4506760378668011.0,3157019788923.7095,2852233.828900217,11613086.231619984,178177650.75663793,3104055166.6513276,5342623033.542397
4.641000000000001,5387497974605739.0,5391290897860198.0,3776635936881.973,5376288.499203014,21889964.79479578,335904896.5075967,5851760294.080598,10072386110.08905
6.105100000000002,6217046009131594.0,6221430507890555.0,4358149078405.691,8695811.90375874,35405653.7632409,543396072.6053137,9466358458.319899,16295824570.226725
7.7156100000000025,7017524258394971.0,7022482663376919.0,4919284302256.201,12906930.051890742,52551537.424106725,806694969.398263,14053136471.458511,24195389774.313667
9.487171000000004,7803960993633589.0,7809486545183996.0,5470576425780.568,18132036.329718936,73825949.631745,1133498924.7721064,19746184878.465855,34003482856.28813
11.435888100000005,8586344220244456.0,8592437613578903.0,6019027040219.376,24518999.893184736,99830950.71584956,1533113437.4348617,26707607016.81546,46001223814.10201
13.579476910000007,9371883651436200.0,9378551172394254.0,6569690154060.043,32242648.812587593,131278366.17957917,2016549911.0429645,35129219574.41098,60521513481.93561
15.937424601000009,1.0166128648534984e+16,1.017338110167025e+16,7126455869050.216,41507487.116043575,169000849.2572877,2596701840.1334567,45235616471.35404,77954439562.58354
18.53116706110001,1.097356910139743e+16,1.098142117058211e+16,7692471597228.526,52551264.2680116,213966414.14424258,3288575989.7561374,57288185842.80926,98754307939.57895
21.384283767210015,1.1797969872843986e+16,1.1806439729699018e+16,8270376506337.576,65649210.77521323,267295681.3049811,4109567393.7192745,71589883771.68091,123447952625.71889
24.522712143931017,1.2642548045170042e+16,1.2651657096766954e+16,8862425769515.352,81118784.76102535,330281203.1023257,5079769043.816808,88490604735.86919,152644053652.1584
27.97498335832412,1.3510043059670292e+16,1.351981576151276e+16,9470539733034.639,99324728.19715856,404408050.0943083,6222304371.112357,108392941514.28629,187043130739.16858
31.772481694156536,1.4402704639230368e+16,1.4413168316188228e+16,10096295450035.879,120684145.7215315,491374489.18807024,7563665374.077443,131758037077.84006,227447746686.82407
35.949729863572195,1.5322214467941032e+16,1.5333399095959654e+16,10740871778005.648,145671222.19992468,593111190.8452618,9134033302.551754,159111128435.96185,274772296476.3198
40.544702849929415,1.62695570629276e+16,1.6281494973880514e+16,11404958860065.67,174821114.56517616,711797074.2796973,10967553848.996584,191046296770.52744,330051624038.91064
45.59917313492236,1.724485842730861e+16,1.7257583911002618e+16,12088645020888.625,208732511.59950954,849869729.1258268,13102536236.726196,228229893979.7169,394447640670.35864
51.1590904484146,1.8247214585748308e+16,1.8260763377231364e+16,12791296570349.521,248068364.95217526,1010028391.2555938,15581546223.301184,271402126920.5652,469253142839.27496
57.27499949325607,1.9274533739029696e+16,1.9288942394826396e+16,13511447154127.293,293554356.1615952,1195227700.7323015,18451366879.278587,321376347726.66864,555892145880.8682
64.00249944258168,2.0323414521318996e+16,2.033871970313331e+16,14246712412292.191,345974768.1933406,1408660892.2871013,21762807460.558865,379035711274.0777,655916247626.8746
71.40274938683986,2.1389078887172024e+16,2.1405316584144696e+16,14993742933326.932,406165563.0944009,1653731610.5894828,25570348960.651775,445327005114.2927,770996788112.4872
79.54302432552385,2.2465372532730668e+16,2.2482577262407316e+16,15748224549586.375,475004621.3808363,1934014169.6738536,29931624484.438057,521251623715.2877,902912860074.1571
88.49732675807624,2.3544839809929172e+16,2.356304384352528e+16,16504930852316.879,553399275.2014709,2253202794.207617,34906743531.43829,607853849170.8102,1053535549066.6354
98.34705943388387,2.4618874915724656e+16,2.46381075756921e+16,17257829175416.033,642271477.6212854,2615051236.521777,40557482360.034996,706206827295.4495,1224809159709.9692
109.18176537727226,2.567794719692201e+16,2.5698234275233264e+16,18000238534158.133,742541209.7291884,3023305219.294414,46946378831.12377,817396908443.591,1418730643375.5735
121.09994191499949,2.6711895460338268e+16,2.6733258805172452e+16,18725035936584.902,855109043.3058282,3481631440.4615016,54135790069.42993,942507366240.1282,1637329000820.496
134.20993610649944,2.7710283461650508e+16,2.7732740778594024e+16,19424905581063.72,980839136.6424716,3993548342.029867,62186994259.10271,1082602903081.7458,1882647077621.2212
148.6309297171494,2.866280538389913e+16,2.868637029493945e+16,20092623096497.715,1120544301.5732536,4562365312.065831,71159441356.49951,1238716754838.1306,2156728837984.3813
164.49402268886433,2.95597255265493e+16,2.9584407925017244e+16,20721363764043.977,1274975064.5923235,5191138148.674763,81110276830.14372,1411842538963.7295,2461615774868.5933
181.94342495775078,3.0392330636755864e+16,3.0418137367659532e+16,21305019600937.043,1444814751.8666377,5882649050.144438,92094271420.43405,1602933141622.2632,2799356425855.2847
201.13776745352587,3.1153367073744308e+16,3.1180302955558176e+16,21838505812274.246,1630682446.3735135,6639418656.099185,104164281398.92848,1812908790680.8716,3172032828415.05
222.25154419887846,3.183742966228127e+16,3.1865498847797316e+16,22318033376839.74,1833145102.5099838,7463755372.759777,117372331884.29446,2042675908860.3652,3581806997931.119
245.47669861876633,3.2441266344375444e+16,3.2470473995302696e+16,22741322607523.15,2052739116.209362,8357843195.628704,131771357300.67311,2293157330676.663,4030989049450.324
271.024368480643,3.2963964196669824e+16,3.299431842109513e+16,23107733549169.66,2290000275.1061263,9323863650.836838,147417549759.6205,2565333027354.029,4522126435109.532
299.1268053287073,3.340698916954923e+16,3.3438503146073196e+16,23418293835477.785,2545499396.6150413,10364140894.20463,164373166103.73898,2860288754871.8896,5058111127239.944
330.03948586157804,3.377406426000306e+16,3.3806758451107624e+16,23675613288110.727,2819879353.8276954,11481292460.345526,182709542452.95337,3179268278274.925,5642298823880.485
364.0434344477359,3.4070887816670716e+16,3.410479216066416e+16,23883686448624.734,3113887924.4367557,12678363004.994673,202509981608.6739,3523723380254.8076,6278631932031.167
401.44777789250946,3.4304713101004148e+16,3.4339869070232096e+16,24047597851076.695,3428400330.825441,13958916074.902468,223872135575.3795,3895355114062.309,6971756810830.69
442.5925556817604,3.448382886993998e+16,3.4520291294950944e+16,24173157910814.426,3764425749.7001476,15327060609.860811,246909520739.45523,4296140022104.458,7727126070903.678
487.8518112499365,3.4616994854521944e+16,3.4654833533261936e+16,24266507195606.668,4123093552.1027293,16787394989.928892,271751919857.63812,4728341882828.3545,8551167253142.248
537.6369923749302,3.4712892903930828e+16,3.4752193468696016e+16,24333731676998.25,4505617481.205161,18344860875.658287,298544307297.52277,5194472645786.968,9450965656710.176
592.4006916124232,3.4779649723168068e+16,3.4820514790605616e+16,24380528171489.516,4913238738.537114,20004511972.145493,327444898330.7677,5697290902897.185,10434885714109.102
652.6407607736655,3.482447711742335e+16,3.4867026700846092e+16,24411952150772.633,5347151949.681316,21771212249.7096,358621722818.47424,6239719574651.698,11512171610297.719
718.9048368510321,3.485345263474069e+16,3.4897824454076664e+16,24432263972819.16,5808419701.157434,23649288070.733883,392248650406.11084,6824782930258.854,12693066074722.92
791.7953205361354,3.487144272318098e+16,3.4917792395279684e+16,24444875015126.582,6297882259.256956,25642160607.595165,428500961682.09186,7455529678468.784,13988826400573.53
871.9748525897489,3.4882149074770196e+16,3.4930650286350164e+16,24452380161821.67,6816068431.052598,27751982910.59482,467550812242.1902,8134954172401.774,15411758382119.443
960.1723378487239,3.4888244539094384e+16,3.4939089292865776e+16,24456653079027.74,7363111927.70796,29979299378.17568,509562774039.87726,8865918923373.62,16975276583619.457
1057.1895716335964,3.4891559162214744e+16,3.4944958163842036e+16,24458976628048.418,7938675584.370262,32322737214.962265,554689486436.4393,9651078983761.828,18693995116267.977
1163.9085287969563,3.4893279483312068e+16,3.4949462709026996e+16,24460182572210.312,8541884105.482132,34778732600.90626,603067309249.2902,10492806328924.395,20583848887833.58
1281.299381676652,3.48941329111241e+16,3.495335036930597e+16,24460780824646.52,9171265192.560514,37341290989.66252,654811779784.8755,11393110802016.01,22662242219201.13
1410.4293198443174,3.489454040749918e+16,3.4957063087310252e+16,24461066479385.8,9824699186.564198,40001782074.319855,710012654274.5886,12353553812224.645,24948220383933.516
1552.4722518287492,3.4894731549864804e+16,3.496085253857324e+16,24461200470081.047,10499378560.78889,42748774859.99787,768728358354.9745,13375151745455.871,27462659981086.29
1708.7194770116243,3.48948241150833e+16,3.496485986310556e+16,24461265358249.324,11191780311.62577,45567925250.813095,830979762343.9984,14458267628974.18,30228475567141.164
1880.5914247127869,3.4894874831977476e+16,3.4969166549288228e+16,24461300910764.832,11897656006.153214,48441935527.67086,896743310947.1375,15602491569626.646,33270841927885.543
2069.6505671840655,3.4894909296535124e+16,3.49738244735868e+16,24461325070401.176,12612045518.860132,51350610277.7176,965943654203.1024,16806512521167.871,36617433150045.08
2277.615623902472,3.4894938288827584e+16,3.497887234739148e+16,24461345393982.56,13329321029.645823,54271035534.27593,1038446036982.9575,18067985856999.793,40298680919378.25
2506.3771862927197,3.489496601175536e+16,3.498434410475207e+16,24461364827739.97,14043267501.419458,57177906445.46824,1114048806858.2058,19383403007241.24,44348055180936.734
2758.0149049219917,3.48949939413561e+16,3.4990272935190948e+16,24461384406375.04,14747204532.299458,60044023401.75842,1192476497424.1938,20747971111381.36,48802370591745.82
3034.816395414191,3.4895022491442156e+16,3.4996693179567816e+16,24461404419969.984,15434152150.681726,62840967079.24038,1273374037905.2388,22155512269077.18,53702122279447.96
3339.2980349556105,3.4895051678976372e+16,3.500364129152408e+16,24461424880415.72,16097039796.227942,65539949316.710236,1356302727078.2336,23598393489455.76,59091854461643.4
3674.227838451172,3.4895081370071344e+16,3.5011156461482268e+16,24461445693857.266,16728953488.536758,68112819475.933426,1440738681088.3193,25067499684311.176,65020565578694.01
4042.6506222962894,3.4895111364773604e+16,3.501928117914247e+16,24461466720127.39,17323411249.373642,70533185837.8067,1526074505613.881,26552262762173.566,71542153783820.53
4447.915684525919,3.4895141425593416e+16,3.5028061857199436e+16,24461487792745.863,17874651631.7292,72777590363.69962,1611624933625.0679,28040759720067.7,78715906917575.17
4893.707252978511,3.489517128884451e+16,3.50375495719043e+16,24461508726868.77,18377915360.55953,74826655410.69403,1696637088845.3162,29519891218186.54,86607041455056.92
5384.077978276362,3.4895200672131896e+16,3.504780094754809e+16,24461529324537.355,18829696443.517445,76666106142.32353,1780305860630.5603,30975649088427.613,95287295340018.12
5923.485776103998,3.489522928213726e+16,3.505887919799117e+16,24461549380135.754,19227937604.749672,78287566247.77615,1861794591386.0571,32393476276073.277,104835580102452.22
6516.834353714399,3.4895256823789156e+16,3.5070855328436864e+16,24461568686818.84,19572146403.734207,79689030726.0814,1940260875400.4067,33758715715294.812,115338698193024.48
7169.5177890858395,3.4895283010863308e+16,3.508380949081104e+16,24461587043943.73,19863413502.69195,80874940263.06012,2014886756130.6465,35057135733529.293,126892132060379.78
7887.469567994424,3.4895307577627484e+16,3.5097832475481364e+16,24461604265232.176,20104323277.85248,81855817280.58101,2084912017070.8098,36275509281251.18,139600912149830.27
8677.216524793868,3.489533029087375e+16,3.511302731121414e+16,24461620187205.57,20298758630.297245,82647471213.77228,2149668644947.707,37402213559079.7,153580571719379.53
9545.938177273256,3.48953509614755e+16,3.512951093564318e+16,24461634677286.258,20451614935.840652,83269833842.96466,2208613985576.844,38427806898347.13,168958197157669.3
10501.531995000581,3.4895369454468412e+16,3.514741589202506e+16,24461647640864.27,20568450415.461426,83745535758.46977,2261359716521.577,39345532857928.57,185873583355148.12
11552.68519450064,3.4895385696611636e+16,3.516689200678704e+16,24461659026597.98,20655109368.800186,84098372335.81294,2307693639703.077,40151699394930.17,204480504632404.06
12708.953713950705,3.489539968047897e+16,3.518810800821195e+16,24461668829281.414,20717358557.941776,84351823252.96126,2347591551525.42,40845885393453.53,224948112776929.75
13980.849085345777,3.4895411464364292e+16,3.521125306066641e+16,24461677089778.707,20760574357.460217,84527778705.01512,2381217137466.1675,41430938830326.88,247462474891473.2
15379.933993880357,3.4895421167681748e+16,3.52365382108929e+16,24461683891798.996,20789509311.556793,84645588929.03543,2408908952362.2324,41912750244110.234,272228265024623.6
16918.927393268394,3.4895428962034516e+16,3.526419777117083e+16,24461689355636.062,20808153197.351746,84721498515.67491,2431154985630.185,42299810193690.22,299470624949659.75
18611.820132595236,3.4895435058677532e+16,3.52944906949661e+16,24461693629379.566,20819688486.98088,84768465070.55424,2448556876384.892,42602586634913.18,329437210994390.0
20474.00214585476,3.4895439693592388e+16,3.5327702029026572e+16,24461696878452.336,20826526522.16794,84796306500.81061,2461787268401.5854,42832782937031.33,362400445517322.9
22522.40236044024,3.4895443111739776e+16,3.5364144546337384e+16,24461699274571.812,20830401499.376675,84812083680.52922,2471544789089.355,43002554559265.195,398659993489511.1
24775.642596484264,3.4895445552169444e+16,3.540416067245396e+16,24461700985311.707,20832495916.30169,84820611212.74295,2478511460260.16,43123768038391.93,438545486693427.3
27254.206856132692,3.48954472356351e+16,3.544812480707157e+16,24461702165420.24,20833573216.947456,84820615304.69612,2483316885751.469,43207377887263.555,482419520309535.9
29980.627541745966,3.4895448354970452e+16,3.5496446149909204e+16,24461702950073.676,20833573885.221355,84820618025.43271,2486512370752.6025,43262976295648.6,530680949130356.94
32979.69029592056,3.489544907100317e+16,3.5549572039803496e+16,24461703452012.24,20833574312.712524,84820619765.87325,2488556447749.887,43298541295498.1,583768513410997.9
36278.65932551262,3.4895449510679284e+16,3.560799188499816e+16,24461703760225.0,20833574575.211235,84820620834.58153,2489811476057.962,43320377596164.375,642164827290994.9
39907.525258063884,3.489544976925562e+16,3.567224166032422e+16,24461703941486.85,20833574729.588356,84820621463.09569,2490549436382.528,43333217404462.695,706400766090026.6
43899.277783870275,3.4895449914584972e+16,3.574290896071206e+16,24461704043362.61,20833574816.353943,84820621816.3434,2490964060458.756,43340431469032.875,777060292357601.1
48290.20556225731,3.4895449996321068e+16,3.582063837898892e+16,24461704100659.574,20833574865.152615,84820622015.01703,2490964066291.7754,43344295660205.234,854785764643779.9
53120.22611848305,3.489545006508098e+16,3.5906136460712588e+16,24461704148860.258,20833574906.204205,84820622182.14992,2490964071198.2563,43344295745377.19,940283777469073.5
58433.24873033136,3.489545006652935e+16,3.600018426658586e+16,24461704149875.54,20833574907.068943,84820622185.6703,2490964071301.606,43344295747170.33,1034331581891074.4
64277.57360336451,3.4895450066680316e+16,3.610363684198336e+16,24461704149981.406,20833574907.159065,84820622186.03731,2490964071312.382,43344295747357.25,1137784157137246.0
70706.33096370097,3.489545006682065e+16,3.6217434663295816e+16,24461704150079.758,20833574907.242825,84820622186.37848,2490964071322.3896,43344295747530.9,1251581978309147.5
77777.96406007107,3.48954500669745e+16,3.63426122527052e+16,24461704150187.668,20833574907.334686,84820622186.75249,2490964071333.3765,43344295747721.44,1376759567564339.0
85556.76046607818,3.489545006714381e+16,3.648030758407452e+16,24461704150306.324,20833574907.435783,84820622187.16405,2490964071345.4556,43344295747931.016,1514454898764050.5
94113.436512686,3.489545006733005e+16,3.663177242803384e+16,24461704150436.83,20833574907.54697,84820622187.61668,2490964071358.7417,43344295748161.516,1665919742536720.0
103525.78016395462,3.4895450067534828e+16,3.679838373152709e+16,24461704150580.445,20833574907.66926,84820622188.11452,2490964071373.3574,43344295748415.19,1832531045824783.5
113879.3581803501,3.4895450067760148e+16,3.698165613528686e+16,24461704150738.41,20833574907.803753,84820622188.66228,2490964071389.436,43344295748694.07,2015803449358781.0
125268.29399838512,3.4895450068008052e+16,3.71832557430224e+16,24461704150912.12,20833574907.95171,84820622189.26462,2490964071407.1196,43344295749000.95,2217403056845919.0
137796.12339822366,3.4895450068280652e+16,3.740501526748705e+16,24461704151103.215,20833574908.114494,84820622189.92728,2490964071426.5723,43344295749338.47,2439162581037461.0
151576.73573804603,3.4895450068580576e+16,3.764895069110468e+16,24461704151313.465,20833574908.293545,84820622190.65634,2490964071447.9736,43344295749709.79,2683098004354552.0
166735.40931185064,3.4895450068910412e+16,3.7917279592598776e+16,24461704151544.71,20833574908.4905,84820622191.45804,2490964071471.512,43344295750118.19,2951426905518115.5
183409.95024303574,3.4895450069273304e+16,3.821244130621519e+16,24461704151799.098,20833574908.707138,84820622192.3401,2490964071497.4023,43344295750567.44,3246588618770911.0
201751.94526733932,3.489545006967251e+16,3.853711909678042e+16,24461704152078.883,20833574908.945457,84820622193.31036,2490964071525.891,43344295751061.62,3571266408936193.0
221928.13979407327,3.4895450070111504e+16,3.889426455216276e+16,24461704152386.645,20833574909.20761,84820622194.37766,2490964071557.2207,43344295751605.21,3928411863878553.0
244121.9537734806,3.4895450070594504e+16,3.928712441485364e+16,24461704152725.23,20833574909.495934,84820622195.55144,2490964071591.6865,43344295752203.11,4321271726085496.0
268535.1491508287,3.489545007112581e+16,3.971927009655573e+16,24461704153097.664,20833574909.813137,84820622196.84302,2490964071629.5903,43344295752860.91,4753417407255263.0
295389.6640659116,3.4895450071710224e+16,4.0194630144046184e+16,24461704153507.38,20833574910.16202,84820622198.2633,2490964071671.2964,43344295753584.44,5228777454160127.0
324929.6304725028,3.4895450072353044e+16,4.071752595140374e+16,24461704153957.977,20833574910.545834,84820622199.82599,2490964071717.172,43344295754380.33,5751673260873481.0
357423.5935197531,3.4895450073060256e+16,4.1292711043189976e+16,24461704154453.65,20833574910.968033,84820622201.54472,2490964071767.631,43344295755255.75,6326858351951110.0
393166.95287172846,3.489545007383806e+16,4.192541428562339e+16,24461704154998.973,20833574911.432404,84820622203.43549,2490964071823.1304,43344295756218.9,6959561593605180.0
432484.6481589014,3.489545007469366e+16,4.262138741847763e+16,24461704155598.78,20833574911.94326,84820622205.51526,2490964071884.184,43344295757278.14,7655534725602008.0
475734.11297479155,3.4895450075634908e+16,4.338695733969213e+16,24461704156258.53,20833574912.505203,84820622207.80302,2490964071951.349,43344295758443.414,8421104645873497.0
523308.52427227073,3.4895450076670188e+16,4.422908361786938e+16,24461704156984.297,20833574913.1233,84820622210.3194,2490964072025.227,43344295759725.03,9263230923013294.0
575640.3766994978,3.4895450077809064e+16,4.515542175532275e+16,24461704157782.633,20833574913.803173,84820622213.08769,2490964072106.49,43344295761135.1,1.0189569059325576e+16
