t(s),Total solute volume 1,Total retention volume 1,Total 1 volume 1,Total 2 volume 1,Total 3 volume 1,Total 4 volume 1,Total 5 volume 1,Total 6 volume 1
1.0,4415721353870918.5,4533726731914417.0,118005378043497.7,0.0,0.0,0.0,0.0,0.0
2.1,6786285060560820.0,6967706340441409.0,181355709939174.88,13221229.92827166,139629853.83964548,6006998757.051957,46568197867.58087,12841893712.597849
3.3100000000000005,8694693246969813.0,8927223090501692.0,232355522291008.66,35569005.34483394,375616628.1156331,16060397800.614414,123186133005.9216,34663524425.266426
4.641000000000001,1.0401069834009446e+16,1.0679352504405744e+16,277956311238820.72,67059335.93065662,708131318.6784524,30173691647.733776,229765628678.77933,65644646489.41072
6.105100000000002,1.200247748411645e+16,1.232375521210988e+16,320751947571263.94,108489250.74150649,1145591328.9173217,48709457370.400444,369049542266.1797,106767341958.65146
7.7156100000000025,1.3547727442718228e+16,1.3910552895159726e+16,362046846905283.94,161068198.46078917,1700767670.056246,72211320223.47498,545118824682.76556,159413555449.88184
9.487171000000004,1.5065828532167412e+16,1.5469537175604152e+16,402616231741117.4,226336687.9126683,2389926441.6964865,101369403365.05092,763127893961.1243,225298135169.05768
11.435888100000005,1.6576059953929528e+16,1.7020511581518324e+16,442975313539640.7,306157576.1921843,3232737064.7955832,137017311213.24564,1029286727663.8745,306471115611.88116
13.579476910000007,1.8092342487513036e+16,1.8577779671188744e+16,483496107109109.6,402736112.8575593,4252484015.0166664,180141569306.3858,1350934172969.7788,405345604174.35614
15.937424601000009,1.9625408100475324e+16,2.0152372806602624e+16,524465410509754.06,518656062.2769584,5476448268.595498,231898112640.44998,1736662191440.7603,524740209059.3003
18.53116706110001,2.1183985827796204e+16,2.175326796063814e+16,566116496089693.6,656927755.5353433,6936414684.817812,293634078114.21277,2196478391242.5635,667930940502.943
21.384283767210015,2.2775499276669652e+16,2.3388104133534508e+16,608647750369662.5,821046927.0607662,8669293248.246853,366914445568.2891,2742002578632.027,838699130765.2786
24.522712143931017,2.440650156653513e+16,2.506362915472917e+16,652234297237288.2,1015064492.9905139,10717855832.675745,453553630580.47406,3386692588301.462,1041311817582.39
27.97498335832412,2.608296018803067e+16,2.6785992113187184e+16,697035610424095.9,1243668129.0574493,13131597542.364796,555652420496.3784,4146081112158.7515,1280205934093.5627
31.772481694156536,2.7810452148587028e+16,2.8560942815050584e+16,743200728507747.4,1512276989.8098285,15967736786.339352,675640796781.9009,5037964031160.897,1558853114111.4253
35.949729863572195,2.959430362931043e+16,3.0393972864474356e+16,790871987038463.9,1827151308.405135,19292372409.575047,816327183480.7974,6082394430505.033,1877406987774.6968
40.544702849929415,3.1439692835909656e+16,3.2290418759837148e+16,840187767040862.2,2195518880.9590154,23181818928.572,980954343672.1399,7301217373647.148,2230607831535.557
45.59917313492236,3.335172462651814e+16,3.425553941045987e+16,891284489220126.0,2625720535.433817,27724141787.689713,1173261358872.5208,8716835082135.929,2609848418238.922
51.1590904484146,3.5335484046133748e+16,3.629457563735854e+16,944298044359823.0,3127377040.9979854,33020918091.649178,1397550114027.5374,10350137029460.63,3009711426348.8784
57.27499949325607,3.739607929735538e+16,3.841279588558698e+16,999364941259005.5,3711580775.253044,39189257076.876114,1658753778894.916,12218163971386.264,3431828384535.178
64.00249944258168,3.9538677886593704e+16,4.061552954873141e+16,1056623272089526.4,4391115721.691777,46364116881.897766,1962503565542.6047,14332706257169.861,3882424992702.9224
71.40274938683986,4.176852844938433e+16,4.290818632755927e+16,1116213294813046.0,5180708640.220168,54700946023.76634,2315188941400.774,16700926275172.246,4368586490734.7783
79.54302432552385,4.409095975304841e+16,4.529625653934196e+16,1178277405475958.5,6097313658.595369,64378671372.26253,2724006937176.1626,19328017170632.18,4896880724642.309
88.49732675807624,4.651135001176841e+16,4.778528326350624e+16,1242959317004540.2,7160431838.610324,75603046983.68394,3196998421287.801,22220699440384.316,5473473392845.103
98.34705943388387,4.903505633903103e+16,5.038079315520262e+16,1310402172720120.0,8392465432.839356,88610358930.6702,3743072320403.2974,25390092510875.473,6104475795837.799
109.18176537727226,5.1667289573933816e+16,5.308816970872881e+16,1380745200211769.0,9819103269.082987,103671447158.22499,4372021804293.7,28853226343363.83,6796195885230.527
121.09994191499949,5.4412917869256984e+16,5.591245207634063e+16,1454118461816618.2,11469729087.198088,121095957538.2209,5094538446238.505,32633333282300.164,7555307851863.295
134.20993610649944,5.727618492892063e+16,5.885804554056461e+16,1530635324742919.0,13377838969.169424,141236678394.08865,5922230546854.718,36759462772511.66,8388979064360.192
148.6309297171494,6.026033600895464e+16,6.192833709028197e+16,1610382466945970.2,15581447748.04491,164493751002.6768,6867650014485.872,41265913228691.38,9304975939462.383
164.49402268886433,6.3367156080545064e+16,6.51252209108247e+16,1693407536365061.8,18123458172.604626,191318480428.4699,7944329002987.083,46191762700641.836,10311760272321.973
181.94342495775078,6.6596438225609704e+16,6.844855244580514e+16,1779704946423375.8,21051961464.564777,222216420119.41086,9166823997263.133,51580598649879.04,11418582743355.47
201.13776745352587,6.994541400948211e+16,7.1895563623418824e+16,1869200656052332.8,24420434497.74999,257749369045.5553,10550762362784.541,57480447861027.16,12635577856958.586
222.25154419887846,7.340818869585787e+16,7.546028321868027e+16,1961737079636519.0,28287797707.770924,298535909664.2913,12112885336800.281,63943870906550.84,13973863235328.207
245.47669861876633,7.697523069608205e+16,7.913301302035784e+16,2057059446667794.8,32718299285.924515,345250131616.3824,13871082234385.88,71028181489312.73,15445645453521.5
271.024368480643,8.063296562747118e+16,8.28999114899805e+16,2154804957137593.8,37781195297.56815,398618230521.41907,15844412881623.234,78795758866990.48,17064334197340.725
299.1268053287073,8.436352115294648e+16,8.674273229807067e+16,2254495966377972.5,43550202152.97622,459412743954.35486,18053118218747.87,87314431266123.11,18844666315059.746
330.03948586157804,8.814466082181254e+16,9.063875696838619e+16,2355538220524133.5,50102707620.81304,528444290103.93256,20518621845948.67,96657915964276.9,20802841241568.74
364.0434344477359,9.194993532663792e+16,9.456095080150118e+16,2457224901720816.0,57518739939.76183,606550814770.5616,23263527466870.05,106906306863408.78,22956669257413.863
401.44777789250946,9.574906952471693e+16,9.847836091813707e+16,2558746973147589.5,65879712461.88404,694584538157.801,26311618565501.254,118146603373536.81,25325734082718.312
442.5925556817604,9.95085938951216e+16,1.0235676532927126e+17,2659210055291332.0,75266984467.52293,793397032342.0991,29687867443479.062,130473276013046.67,27931571384768.45
487.8518112499365,1.0319271928128984e+17,1.0615957185836326e+17,2757657802430168.0,85760307396.38324,903823153816.2657,33418461360772.715,143988864929979.03,30797864891266.48
537.6369923749302,1.0676444235325947e+17,1.0984895402188942e+17,2853101443251704.5,97436258285.38881,1026664888001.6323,37530854353652.266,158804607933554.2,33950661944591.16
592.4006916124232,1.1018685454331842e+17,1.1338719590366368e+17,2944554757302191.0,110366795037.44516,1162676496662.0593,42053854517536.36,175041094730898.3,37418610502813.88
652.6407607736655,1.1342460827235442e+17,1.1673819861773525e+17,3031073253061010.0,124618095142.23178,1312552632133.4578,47017757967257.85,192828943837003.62,41233219788291.1
718.9048368510321,1.1644547156462142e+17,1.1986907762885811e+17,3111795706490554.5,140249852395.65787,1476921210125.6682,52454541792252.03,212309497888789.38,45429147002568.69
791.7953205361354,1.1922187799876003e+17,1.2275175540309083e+17,3185985573777095.5,157315195807.9882,1656342721528.43,58398128277572.875,233635531593251.38,50044512765710.086
871.9748525897489,1.217323575032401e+17,1.2536443184370627e+17,3253069219263059.0,175861352986.87277,1851317228680.6694,64884730449860.78,256971963973514.5,55121248197995.06
960.1723378487239,1.2396272010066658e+17,1.2769280119587027e+17,3312667541549056.5,195931102060.713,2062299483941.6177,71953283611036.8,282496562616268.3,60705476841506.445
1057.1895716335964,1.2590686482508312e+17,1.2973088421052029e+17,3364617584010191.0,217564943189.07074,2289721443174.476,79645958170596.61,310400621951929.2,66847934918171.62
1163.9085287969563,1.2756710402641381e+17,1.31481362806216e+17,3408981196657140.5,240803783062.6555,2534020027458.619,88008735606182.44,340889589988195.3,73604433740169.72
1281.299381676652,1.2895393095776062e+17,1.3295534312850026e+17,3446038823040467.5,265691783332.45663,2795666515667.4004,97092012605933.88,374183608362995.1,81036368431337.77
1410.4293198443174,1.3008521401965347e+17,1.3417152983692528e+17,3476267968139749.0,292278904608.63275,3075192716174.5044,106951180564261.25,410517919455843.94,89211277491112.12
1552.4722518287492,1.3098486807332514e+17,1.3515486325143346e+17,3500307694277262.0,320622613051.459,3373208393608.771,117647112215855.34,450143082461007.7,98203458147420.28
1708.7194770116243,1.3168112158568435e+17,1.3593474114765523e+17,3518912318293154.0,350788233983.83026,3690404600925.2466,129246478815262.83,493324929108777.3,108094642918449.75
1880.5914247127869,1.3220455533280328e+17,1.3654300547244624e+17,3532899005227776.0,382847550271.1562,4027538735248.0894,141821824129876.25,540344180645237.2,118974743354552.88
2069.6505671840655,1.3258612153545254e+17,1.3701190829689938e+17,3543094839434938.0,416875444879.3043,4385399223613.3535,155451337821536.78,591495641944146.8,130942667577504.56
2277.615623902472,1.3285535281547304e+17,1.3737227188293405e+17,3550288967867804.5,452944644981.9043,4764750422567.45,170218299065514.9,647086886477368.9,144107218982942.94
2506.3771862927197,1.3303893604856485e+17,1.3765202254815298e+17,3555194493504127.5,491118887506.3071,5166261047493.651,186210195629964.34,707436346201675.4,158588084317707.06
2758.0149049219917,1.3315976296999312e+17,1.3787521314047917e+17,3558423107722972.5,531445034756.07007,5590421626181.654,203517554922880.1,772870720910953.5,174516920268416.53
3034.816395414191,1.3323649045288054e+17,1.3806156790688896e+17,3560473341277557.5,573944776975.0098,6037457607383.145,222232542074190.78,843721619595694.8,192038548676596.25
3339.2980349556105,1.332835658802163e+17,1.3822650396547122e+17,3561731242734473.0,618606547992.2056,6507244653788.393,242447379618051.78,920321340189778.1,211312271511010.3
3674.227838451172,1.333116132606107e+17,1.3838152219209805e+17,3562480696129441.0,665378168278.1428,6999231493613.974,264252623604470.53,1002997684311963.1,232513317779595.3
4042.6506222962894,1.3332804441878934e+17,1.3853482813360122e+17,3562919752708980.5,714160565634.1367,7512374002931.518,287735298471219.94,1092067693388923.1,255834435674277.1
4447.915684525919,1.3333775909340216e+17,1.386920430070673e+17,3563179338289138.0,764802769359.8569,8045082588485.85,312976858525659.0,1187830187040271.2,281487644452215.2
4893.707252978511,1.3334382226652995e+17,1.388568899709841e+17,3563341352186517.5,817098281424.741,8595183984088.229,340050918447202.6,1290556989642847.8,309706161911843.44
5384.077978276362,1.3334804341160013e+17,1.390317829784689e+17,3563454145297711.5,870782909837.8641,9159898546955.459,369021146898578.25,1400486087468657.0,340747505747027.94
5923.485776103998,1.3335143775338731e+17,1.3921826837176083e+17,3563544845418258.0,925534314322.7468,9735834719439.893,399936438732325.06,1517796175886118.5,374891789302987.8
6516.834353714399,1.333545305902547e+17,1.3941735469018066e+17,3563627489033172.5,980973304274.3472,10319003671339.111,432830614916953.9,1642615391198278.8,412450627801807.94
7169.5177890858395,1.3335758317506528e+17,1.3962970692156306e+17,3563709057073568.5,1036667628920.602,10904858324414.854,467716572300904.44,1774991167187894.2,453765423982038.0
7887.469567994424,1.3336071456107445e+17,1.3985576146955141e+17,3563792730758434.0,1092138346437.0598,11488360526762.334,504582867110331.8,1914879070229935.5,499211741505093.0
8677.216524793868,1.3336397314682982e+17,1.4009578243091157e+17,3563879803344065.5,1146869308207.9646,12064080788139.246,543389443635340.44,2062126372294198.8,549202714711745.56
9545.938177273256,1.3336737360376838e+17,1.4034988229751723e+17,3563970666865504.0,1200319950990.348,12626332824833.104,584063257655532.1,2216455316744626.2,604192799707602.5
10501.531995000581,1.3337091610887083e+17,1.4061801911067288e+17,3564065326051580.5,1251941400764.6184,13169342819480.895,626493418712157.1,2377442673354902.0,664680299463059.1
11552.68519450064,1.3337458614474043e+17,1.4090000645938896e+17,3564163392983684.5,1301195449393.7654,13687449557708.494,670529438898279.4,2544520744492802.0,731218093266711.1
12708.953713950705,1.333783716852346e+17,1.4119548451269054e+17,3564264546311320.0,1347575965420.2134,14175328864573.932,715974639390811.0,2716941065461678.0,804409671462275.9
13980.849085345777,1.3338225206590016e+17,1.4150392628762408e+17,3564368233860148.5,1390631163014.033,14628228378319.928,762585890129229.2,2893780825372884.0,884920412820204.8
15379.933993880357,1.3338620290949342e+17,1.4182463851102843e+17,3564473804246443.0,1429985598149.5342,15042198798756.104,810072086129126.4,3073935292807320.0,973482233955175.4
16918.927393268394,1.3339019604583189e+17,1.4215677215441086e+17,3564580504735492.5,1465359878602.222,15414301218379.164,858094920486131.1,3256120779203901.5,1070900243056476.4
18611.820132595236,1.3339419972080242e+17,1.4249934443894414e+17,3564687486826472.0,1496586183751.2112,15742770375384.47,906271859943349.2,3438885955799207.5,1178060059013387.2
20474.00214585476,1.3339817904875096e+17,1.4285127411407054e+17,3564793818340745.0,1523617742304.0837,16027114348513.48,954181700120134.6,3620632952317429.0,1295935862450852.5
22522.40236044024,1.3340209670723027e+17,1.4321143142320146e+17,3564898501986276.0,1546530793342.4373,16268135182405.756,1001372984378464.4,3799649311762621.5,1425599251868169.8
24775.642596484264,1.3340591387740675e+17,1.4357870344654136e+17,3565000500486069.5,1565518216445.3967,16467861878591.094,1047375415361093.6,3974151287798888.0,1568228985393346.0
27254.206856132692,1.3340959142064438e+17,1.4395207445563797e+17,3565098768017756.5,1580874909911.4973,16629396583648.043,1091714166872434.9,4142338131891832.0,1725121696717972.5
29980.627541745966,1.3341309126023128e+17,1.4433071955215562e+17,3565192287134629.0,1592976009397.0513,16756685465059.354,1133926719752878.8,4302455940928055.0,1897703682634305.5
32979.69029592056,1.3341637791068216e+17,1.447141082715221e+17,3565280109630099.5,1602250007136.8552,16854235946163.146,1173581514326177.2,4452868381591441.0,2087543869338926.0
36278.65932551262,1.3341942006873322e+17,1.4510211315592493e+17,3565361399050594.0,1609149564971.6016,16926809682648.785,1210297364003730.8,4592130289506521.0,2296368075383320.5
39907.525258063884,1.334221921539012e+17,1.454951167599414e+17,3565435471860817.5,1614123143722.6638,16979124127066.67,1243762255075873.5,4719058930893832.0,2526074700938912.5
43899.277783870275,1.3342467566712088e+17,1.458941094276276e+17,3565501833747860.0,1617590397737.0735,17015593700369.85,1273749924641037.0,4832796832010479.0,2778751986009135.0
48290.20556225731,1.3342686022876251e+17,1.4630076978279034e+17,3565560207357980.0,1619923615369.1143,17040134562076.457,1300132525735055.5,4932859768275268.0,3056696994481865.5
53120.22611848305,1.3342874416712824e+17,1.4671752048692138e+17,3565610548021883.5,1621436451504.519,17056046086895.334,1322887813651711.5,5019163978979225.0,3362436496601750.5
58433.24873033136,1.3343033424855933e+17,1.471475582486222e+17,3565653036542862.0,1622380014368.7725,17065969703862.338,1342099770366999.5,5092028903305887.0,3698753940128987.0
64277.57360336451,1.3343164696478824e+17,1.4759482182823456e+17,3565688113596007.0,1622945333030.9302,17066136034886.371,1357951361370030.2,5152147958316548.0,4068698348795685.0
70706.33096370097,1.3343270302400437e+17,1.4806399931560752e+17,3565716332524335.5,1622958172687.9463,17066269846168.96,1370711525187989.5,5200542034034811.0,4475637171837292.5
77777.96406007107,1.3343353085973114e+17,1.485604236889216e+17,3565738453099258.5,1622968237585.7512,17066374739665.18,1380714847818032.0,5238480305247352.0,4923269880048515.0
85556.76046607818,1.3343416170923917e+17,1.4909000136487725e+17,3565755310011022.5,1622975907508.166,17066454673401.562,1388337905961814.8,5267391126756968.0,5415665882327117.0
94113.436512686,1.3343462811815358e+17,1.496591267225894e+17,3565767772910334.0,1622981578147.7139,17066513771179.205,1393973915233225.8,5288765893170645.0,5957301527772273.0
103525.78016395462,1.3343496200271573e+17,1.5027460486314016e+17,3565776694630217.5,1622985637544.8264,17066556077048.232,1398008534665891.5,5304067293276845.0,6553100796136949.0
113879.3581803501,1.3343519295262627e+17,1.5094359614804538e+17,3565782865836194.5,1622988445453.618,17066585340264.725,1400799314734428.8,5314651381885369.0,7208480059177701.0
125268.29399838512,1.3343534698453165e+17,1.5167359196806243e+17,3565786981718349.0,1622990318186.7168,17066604857349.045,1402660631797446.2,5321710455771382.0,7929397319067919.0
137796.12339822366,1.3343544582474717e+17,1.5247242663640176e+17,3565789622824929.0,1622991519894.5142,17066617381201.068,1403855019997859.8,5326240188418404.0,8722406371512509.0
151576.73573804603,1.334355221253881e+17,1.533476059458298e+17,3565791661652193.0,1622992447564.246,17066627049107.193,1403855417338186.0,5329030633331930.0,9594716488623030.0
166735.40931185064,1.3343558273988134e+17,1.543072097440901e+17,3565793281330323.0,1622993184520.4407,17066634729451.896,1403855732761323.5,5329030734642666.0,1.055425762756059e+16
183409.95024303574,1.3343558418702107e+17,1.553627061015643e+17,3565793319999313.5,1622993202114.8918,17066634912816.176,1403855740291970.8,5329030737027068.0,1.1609752489109834e+16
201751.94526733932,1.3343558421057965e+17,1.5652375089441056e+17,3565793320628818.5,1622993202401.3203,17066634915801.244,1403855740414565.8,5329030737065882.0,1.2770797257603408e+16
221928.13979407327,1.3343558421142686e+17,1.578009001119174e+17,3565793320651447.0,1622993202411.616,17066634915908.584,1403855740418978.8,5329030737067280.0,1.4047946474234554e+16
244121.9537734806,1.3343558421208835e+17,1.5920576420167606e+17,3565793320669133.0,1622993202419.659,17066634915992.428,1403855740422416.0,5329030737068380.0,1.5452810563309374e+16
268535.1491508287,1.3343558421281494e+17,1.607511146405966e+17,3565793320688553.5,1622993202428.4924,17066634916084.484,1403855740426198.8,5329030737069580.0,1.699816100147874e+16
295389.6640659116,1.3343558421361435e+17,1.6245100005103248e+17,3565793320709900.0,1622993202438.2102,17066634916185.781,1403855740430358.8,5329030737070890.0,1.8698046411088304e+16
324929.6304725028,1.3343558421449334e+17,1.6432087391493622e+17,3565793320733399.5,1622993202448.8994,17066634916297.176,1403855740434935.0,5329030737072342.0,2.056792027408294e+16
357423.5935197531,1.334355842154606e+17,1.6637773505926275e+17,3565793320759240.0,1622993202460.657,17066634916419.7,1403855740439967.0,5329030737073920.0,2.262478141741022e+16
393166.95287172846,1.3343558421652454e+17,1.6864028218980256e+17,3565793320787666.0,1622993202473.5933,17066634916554.496,1403855740445503.5,5329030737075690.0,2.488732854685038e+16
432484.6481589014,1.334355842176947e+17,1.7112908387825056e+17,3565793320818940.0,1622993202487.8247,17066634916702.775,1403855740451592.5,5329030737077616.0,2.737613023408854e+16
475734.11297479155,1.3343558421898187e+17,1.7386676554781674e+17,3565793320853332.0,1622993202503.4731,17066634916865.885,1403855740458291.2,5329030737079731.0,3.0113811902323988e+16
