t(s),Total solute volume 1,Total retention volume 1,Total 1 volume 1,Total 2 volume 1,Total 3 volume 1,Total 4 volume 1,Total 5 volume 1,Total 6 volume 1
1.0,1855925554963952.8,1856343569343292.2,418014379344.80884,0.0,0.0,0.0,0.0,0.0
2.1,2852342225429783.5,2853006063993376.5,642439594545.2736,23452274.946156476,70825627.17562218,694236077.7526433,8984500058.68451,11625955013.823055
3.3100000000000005,3654491334987653.0,3655372013227604.0,823109480847.0851,63073746.84582334,190482059.08844256,1867447061.5433693,24167647817.697132,31280108430.46649
4.641000000000001,4371724897388336.5,4372818085449400.5,984653643520.0442,118873270.72881745,358996038.2752731,3520214560.4500637,45556972601.37907,58979361074.47223
6.105100000000002,5044841793956880.0,5046153640189176.0,1136261308273.7026,192239951.6773346,580562647.9966608,5694064127.738598,73689879760.03096,95428177543.28195
7.7156100000000025,5694356503540233.0,5695899732855317.0,1282552998272.6797,285286528.0911075,861562336.5031,8452070534.184259,109382652084.93669,141694745324.7715
9.487171000000004,6332452703205369.0,6334245275520182.0,1426272871063.6125,400701844.0970341,1210115385.2335668,11874535113.114365,153674507293.46902,199139584114.6455
11.435888100000005,6967204699019816.0,6969269402815374.0,1569239521113.38,541730530.1091273,1636020544.131103,16058438363.777246,207820510741.0259,269407574285.60266
13.579476910000007,7604388288235469.0,7606752770322767.0,1712753844447.3828,712200159.1633998,2150837043.096582,21118311786.81742,273302852215.6952,354444041635.78015
15.937424601000009,8248344287698892.0,8251041326520595.0,1857793533128.6492,916570074.4460973,2768032049.998772,27187769095.976856,351850652861.1983,456522264496.7471
18.53116706110001,8902399289773547.0,8905467221911430.0,2005107843077.093,1159989237.660104,3503155371.333281,34421326682.41068,445463512652.2437,578276310861.9712
21.384283767210015,9569048249884084.0,9572531497133802.0,2155258718683.4204,1448353607.9633553,4374012735.105199,42996237137.680534,556435225060.0432,722734702506.2708
24.522712143931017,1.0249996721798518e+16,1.0253946380245178e+16,2308630305566.118,1788354010.3548613,5400810351.940799,53114073202.65441,687374261411.1091,893350642123.3422
27.97498335832412,1.0946120495239928e+16,1.0950594952980716e+16,2465419859669.548,2187505624.1282415,6606243969.105034,65001804683.75164,841217694481.2354,1094024632348.816
31.772481694156536,1.1657384735140436e+16,1.1662450287743706e+16,2625619534826.213,2654151050.7881894,8015508134.987554,78912135330.4408,1021235547210.6608,1329115726691.135
35.949729863572195,1.2382756879401772e+16,1.2388488314400448e+16,2788996764534.0327,3197430608.186133,9656206487.418676,95122916401.84636,1231023195901.1646,1603438484730.761
40.544702849929415,1.3120140827210758e+16,1.3126621951735618e+16,2955079439053.4443,3827215825.108026,11558150908.124903,113935522240.21617,1474480344801.331,1922243852013.4333
45.59917313492236,1.3866352370294652e+16,1.3873676459413708e+16,3123150371744.965,4554004709.45682,13753045234.306787,135672149731.46428,1755776079776.7373,2291183467882.175
51.1590904484146,1.4617147761053718e+16,1.4625417908387218e+16,3292253733545.5938,5388779956.732617,16274057050.847008,160672079903.70184,2079300497084.025,2716258185958.587
57.27499949325607,1.5367309976068948e+16,1.5376639332918548e+16,3461214482304.3105,6342833814.494895,19155288784.53948,189287014999.89,2449604374856.613,3203752854859.9224
64.00249944258168,1.6110791628167784e+16,1.6121303523281834e+16,3628670551199.4897,7427566023.250446,22431167490.05038,221875684260.0336,2871329388575.7188,3760160756504.894
71.40274938683986,1.6840909897951704e+16,1.6852737838045998e+16,3793116753615.5776,8654264419.093733,26135782275.181717,258798005703.0871,3349132588332.129,4392102699958.8545
79.54302432552385,1.7550586825463112e+16,1.7563874387735086e+16,3952958904584.2437,10033881597.840721,30302209832.42355,300409205545.9357,3887610334467.5796,5106247735975.264
88.49732675807624,1.823262688135339e+16,1.824752752415868e+16,4106576338768.6924,11576825358.426853,34961881584.08883,347054427919.5583,4491228582475.999,5909244749159.162
98.34705943388387,1.8880021953050784e+16,1.889669878961371e+16,4252390603186.8447,13292784844.388544,40144058635.34039,399064497638.1963,5164268090221.639,6807676528417.348
109.18176537727226,1.948627114270817e+16,1.9504896744078504e+16,4388937486021.5225,15190617290.99313,45875489755.32085,456753596158.7699,5910794379517.58,7808049801574.253
121.09994191499949,2.0045699104113148e+16,2.006645541916164e+16,4514938716354.279,17278320650.5487,52180328708.74386,520419633983.1181,6734662582532.918,8916835466257.29
134.20993610649944,2.0553752702668668e+16,2.057683120117812e+16,4629368781552.766,19563113680.595833,59080376123.13572,590348008813.7175,7639566087948.918,10140572141295.545
148.6309297171494,2.1007252682312588e+16,2.103285483782307e+16,4731511610767.738,22051636285.92631,66595684519.977745,666819195104.4635,8629134749719.152,11486042634123.951
164.49402268886433,2.140457604754655e+16,2.1432914275154904e+16,4821001653237.423,24750268753.749603,74745522400.45126,750120207138.6422,9707083201854.496,12960526754968.836
181.94342495775078,2.1745747129015504e+16,2.1777046276303784e+16,4897844389182.681,27665549935.26999,83549637147.06099,840559438041.2694,10877402841300.213,14572125432701.434
201.13776745352587,2.2032421420446064e+16,2.2066920875662748e+16,4962412689355.663,30804653716.771366,93029693958.1897,938483765301.7216,12144583126766.596,16330141287590.549
222.25154419887846,2.2267756134530456e+16,2.2305712566658724e+16,5015417660043.404,34175863900.4287,103210709979.99792,1044296232412.2806,13513840326043.371,18245491335922.113
245.47669861876633,2.2456174026036308e+16,2.249786471174125e+16,5057855448410.808,37788974288.846725,114122262555.12506,1158472194282.3706,14991326385662.33,20331120439734.94
271.024368480643,2.2603040526686536e+16,2.2648767158099864e+16,5090934522860.3955,41655537591.14277,125799240915.56432,1281571677513.607,16584288829292.03,22602381605169.78
299.1268053287073,2.2714286196701456e+16,2.276437901261058e+16,5115990636942.424,45788896568.07364,138281940241.81042,1414245942996.8188,18301155648213.312,25077352844116.652
330.03948586157804,2.2796014394109104e+16,2.2850836446347468e+16,5134398463830.456,50203953757.07907,151615366238.3625,1557236858998.5725,20151527176301.13,27777070419221.285
364.0434344477359,2.285413591150962e+16,2.2914087276241664e+16,5147489304737.832,54916668896.54713,165847717365.80154,1711368609395.6973,22146068798051.03,30725673633578.01
401.44777789250946,2.2894067317171852e+16,2.2959589089690484e+16,5156483145604.623,59943309365.28071,181028121182.85358,1877532289760.4578,24296311638178.348,33950474014546.99
442.5925556817604,2.2920518606445684e+16,2.2992096573272588e+16,5162440829347.869,65299510410.906654,197203796253.6995,2056664843128.1328,26614380014140.812,37481977833623.03
487.8518112499365,2.2937380777367804e+16,2.3015548733649624e+16,5166238734263.694,70999221163.07103,214416869147.05902,2249724333537.1724,29112671823123.543,41353905300556.055
537.6369923749302,2.2947708357736616e+16,2.3033051080966176e+16,5168564838560.613,77053615208.78052,232701084300.53412,2457663568689.5093,31803515841843.3,45603224280936.68
592.4006916124232,2.2953778957543708e+16,2.3046934973137616e+16,5169932133492.346,83470031228.88988,252078604907.00662,2681403732159.338,34698832835171.04,50270298256930.41
652.6407607736655,2.2957204320881784e+16,2.305886852482608e+16,5170703635828.218,90250986096.27513,272557032372.5739,2921808716999.252,37809801748820.5,55399081824185.43
718.9048368510321,2.2959065583840036e+16,2.306999186784891e+16,5171122852296.147,97393277354.37325,294126695839.86957,3179660143158.8877,41146536898991.64,61037444141220.664
791.7953205361354,2.2960049230941292e+16,2.3081053200171756e+16,5171344401358.655,104887173930.61838,316758208145.329,3455632197975.423,44717762394547.45,67237584854487.11
871.9748525897489,2.2960567243890564e+16,2.3092529089514224e+16,5171461074587.419,112715687954.14854,340400266706.28876,3750265100811.3667,48530468749140.164,74056534744445.77
960.1723378487239,2.2960852913714304e+16,2.3104720468832076e+16,5171525416648.257,120853928137.97113,364977700727.1981,4063936018357.3857,52589536500788.586,81556725553141.3
1057.1895716335964,2.2961030662556276e+16,2.311782264595839e+16,5171565451422.163,129268553052.87971,390389820072.65857,4396826639079.149,56897316598763.97,89806616339720.12
1163.9085287969563,2.29611628526487e+16,2.313197229638291e+16,5171595224895.818,137917365138.617,416509189159.77997,4748887216724.916,61453165099793.34,98881369638465.6
1281.299381676652,2.2961278759626344e+16,2.3147276624464068e+16,5171621330886.672,146749107550.15573,443181013404.53485,5119797576130.805,66252938557314.72,108863577252436.06
1410.4293198443174,2.2961391160694892e+16,2.3163830166582228e+16,5171646647233.687,155703541302.29053,470223372160.2189,5508926243789.285,71288465147059.53,119844040935794.67
1552.4722518287492,2.2961505125880692e+16,2.3181723859405536e+16,5171672315870.374,164711886805.04886,497428552107.267,5915289481498.411,76547014541338.75,131922616747206.81
1708.7194770116243,2.296162233062443e+16,2.3201049735816616e+16,5171698714160.034,173697710279.5554,524565724173.7642,6337512566083.546,82010796851468.16,145209133626003.34
1880.5914247127869,2.2961743012794744e+16,2.322190342350017e+16,5171725895678.332,182578320844.36676,551385162674.3254,6773796185668.151,87656527783702.0,159824397356931.4
2069.6505671840655,2.296186679362789e+16,2.32443857242518e+16,5171753775115.508,191266717583.42465,577624125390.2021,7221891311581.098,93455103476988.14,175901291217233.53
2277.615623902472,2.29619929967586e+16,2.3268603972374732e+16,5171782200132.205,199674087240.3802,603014396542.3729,7679086321517.89,99371433880961.02,193585984729674.88
2506.3771862927197,2.296212076552487e+16,2.3294673540507824e+16,5171810977780.548,207712802776.8505,627291342381.0684,8142210425913.672,105364487108517.42,213039262325624.78
2758.0149049219917,2.296224910848494e+16,2.332271969193623e+16,5171839884755.884,215299813005.07147,650204147834.3674,8607657488167.197,111387597697692.0,234437984419821.53
3034.816395414191,2.296237692484844e+16,2.335287989651887e+16,5171868673124.655,222360248408.8929,671526706067.4059,9071434014431.809,117389087642001.22,257976694386427.75
3339.2980349556105,2.296250302884983e+16,2.3385306684682004e+16,5171897075814.25,228831005489.22604,691068443214.0966,9529234300858.791,123313238853143.45,283869386153675.2
3674.227838451172,2.2962626179478544e+16,2.342017108352376e+16,5171924813309.031,234664021544.74634,708684208257.0361,9976544362887.988,129101638077842.5,312351448561415.0
4042.6506222962894,2.2962745117231364e+16,2.3457666647970544e+16,5171951601928.247,239828925407.18637,724282278325.8163,10408774272769.457,134694889429746.19,343681804231076.0
4447.915684525919,2.296285860752877e+16,2.349801406320572e+16,5171977163604.746,244314758713.46143,737829557049.6829,10821415912759.127,140034655809088.0,378145262475728.8
4893.707252978511,2.29629654892178e+16,2.354146625209692e+16,5172001236809.426,248130515259.64294,749353203542.8124,11210220035013.78,145065950154581.47,416055107733927.75
5384.077978276362,2.2963064725582412e+16,2.3588313876113612e+16,5172023588040.387,251304345209.1487,758938229262.1716,11571383163676.264,149739554049737.38,457755947155281.9
5923.485776103998,2.2963155454406384e+16,2.3638891075806844e+16,5172044023098.707,253881409979.44714,766721019910.6842,11901731686421.361,154014399948985.88,503626843312068.3
6516.834353714399,2.2963237032971556e+16,2.369358126486307e+16,5172062397223.564,255920535951.61594,772879229763.4929,12198887999253.227,157859721152321.9,554084760576960.1
7169.5177890858395,2.2963309073574948e+16,2.375282277861321e+16,5172078623091.675,257489975184.85526,777618979110.4247,12461402400595.389,161256758547129.97,609588356513184.1
7887.469567994424,2.2963371465362292e+16,2.3817114191841784e+16,5172092675735.118,258662708658.02267,781160670079.4366,12688835159516.225,164199822568504.94,670642152696984.2
8677.216524793868,2.2963424379116464e+16,2.3887019167492504e+16,5172104593619.722,259511793729.78806,783724935945.4255,12881776215270.979,166696548071068.06,737801122766401.9
9545.938177273256,2.2963468253111504e+16,2.3963170778410068e+16,5172114475458.904,260106243969.84866,785520198149.5804,13041795374218.361,168767249800469.88,811675739206293.9
10501.531995000581,2.296350376015269e+16,2.4046275353005216e+16,5172122472790.134,260507834364.8403,786733017913.4719,13171323260039.176,170443381782409.44,892937524485024.8
11552.68519450064,2.2963531758212452e+16,2.413711601975723e+16,5172128778856.496,260769065584.4942,787521948197.2299,13273471725198.389,171765213320494.4,982325156706461.2
12708.953713950705,2.2963553229273716e+16,2.4236556245541388e+16,5172133614832.208,260932331199.05942,788015018573.0739,13351810579926.396,172778939736845.47,1080651184986321.2
13980.849085345777,2.2963569212682588e+16,2.4345543756661644e+16,5172137214811.551,261030152721.95065,788310444951.2362,13410123759323.98,173533527050800.03,1188809415356496.5
15379.933993880357,2.29635807401033e+16,2.4465115279043772e+16,5172139811158.599,261086216182.38812,788479759957.7874,13452170999286.102,174077627963826.1,1307783034190054.8
16918.927393268394,2.296358877882448e+16,2.459640252309903e+16,5172141621737.972,261116882856.85892,788572375306.84,13481479859909.072,174456890572436.8,1438653542962303.2
18611.820132595236,2.2963594188695436e+16,2.474063976966762e+16,5172142840215.448,261132857726.27084,788620620535.1836,13501187543368.543,174711911457197.56,1582610585653130.2
20474.00214585476,2.2963597695647732e+16,2.4899173300640724e+16,5172143630094.244,261140765428.71146,788644502395.9972,13513943421064.828,174876974383486.47,1740962758290508.8
22522.40236044024,2.296359988207655e+16,2.5073472787123204e+16,5172144122548.562,261144477292.15384,788655712526.1608,13521873329821.393,174979588320881.4,1915149499083546.2
24775.642596484264,2.2963601191895796e+16,2.526514462967378e+16,5172144417562.107,261146126190.80942,788660692344.1681,13526597657707.426,175040721517602.28,2106754167366576.0
27254.206856132692,2.296360194634522e+16,2.5475947165527504e+16,5172144587488.464,261146818123.88943,788662782046.6467,13529288864057.445,175075545860420.16,2317518430270088.0
29980.627541745966,2.296360236589873e+16,2.5707807631471776e+16,5172144681985.441,261147091999.63055,788663609178.576,13530751394543.562,175094471024684.38,2549358087770643.5
32979.69029592056,2.2963602593893764e+16,2.596284079763028e+16,5172144733337.291,261147194172.71228,788663617008.8427,13531507929867.873,175104260573669.75,2804380479688404.5
36278.65932551262,2.2963602718469856e+16,2.624336925583906e+16,5172144761395.847,261147195589.41895,788663621287.2831,13531879585170.756,175109069769842.5,3084903632435882.5
39907.525258063884,2.2963602790867016e+16,2.655194542660498e+16,5172144777702.026,261147196412.7351,788663623773.691,13532052595220.596,175111308501904.3,3393477319042951.0
43899.277783870275,2.2963602839205348e+16,2.689137544072929e+16,5172144788589.372,261147196962.44885,788663625433.8243,13532128747156.44,175112293896793.9,3732906223268963.5
48290.20556225731,2.2963602878078844e+16,2.726474511494853e+16,5172144797344.944,261147197404.52722,788663626768.8933,13532160376146.832,175112703169885.25,4106275417702167.0
53120.22611848305,2.296360291481848e+16,2.7675448280863148e+16,5172144805619.89,261147197822.3382,788663628030.6804,13532160397796.363,175112863302878.84,4516978386712479.0
58433.24873033136,2.29636029530778e+16,2.81272177808194e+16,5172144814237.111,261147198257.43103,788663629344.6586,13532160420341.375,175112863594571.34,4968747848084866.0
64277.57360336451,2.296360299329658e+16,2.86241596254613e+16,5172144823295.681,261147198714.8077,788663630725.9329,13532160444041.008,175112863901202.44,5465689652166769.0
70706.33096370097,2.2963603037511144e+16,2.9170790084887216e+16,5172144833254.221,261147199217.62592,788663632244.4374,13532160470095.29,175112864238298.6,6012320067002930.0
77777.96406007107,2.296360308614636e+16,2.9772076851055616e+16,5172144844208.44,261147199770.71573,788663633914.7667,13532160498754.447,175112864609097.22,6613606784123519.0
85556.76046607818,2.2963603139644336e+16,3.043348413950976e+16,5172144856257.925,261147200379.10687,788663635752.1018,13532160530279.152,175112865016971.16,7275014018625738.0
94113.436512686,2.2963603198491372e+16,3.116102229020249e+16,5172144869512.174,261147201048.32864,788663637773.1436,13532160564955.826,175112865465626.0,8002552109972148.0
103525.78016395462,2.296360326322213e+16,3.196130231754812e+16,5172144884091.625,261147201784.46072,788663639996.2572,13532160603099.637,175112865959139.44,8802832072037908.0
113879.3581803501,2.2963603334424836e+16,3.284159590238178e+16,5172144900128.768,261147202594.19315,788663642441.6427,13532160645057.156,175112866501994.66,9683125585064734.0
125268.29399838512,2.296360341274634e+16,3.3809901367265624e+16,5172144917769.302,261147203484.88263,788663645131.518,13532160691209.541,175112867099124.8,1.0651430970962556e+16
137796.12339822366,2.2963603498898296e+16,3.487501623015357e+16,5172144937173.519,261147204464.62143,788663648090.3225,13532160741976.172,175112867755955.16,1.1716545746967624e+16
151576.73573804603,2.296360359366342e+16,3.60466169902231e+16,5172144958517.653,261147205542.31113,788663651344.9343,13532160797818.238,175112868478452.62,1.2888146411468024e+16
166735.40931185064,2.2963603697902464e+16,3.733534686422339e+16,5172144981995.667,261147206727.74048,788663654924.922,13532160859243.055,175112869273180.94,1.4176876180344846e+16
183409.95024303574,2.2963603812562484e+16,3.8752912262501384e+16,5172145007820.796,261147208031.6795,788663658862.8054,13532160926808.568,175112870147358.62,1.5594441462990048e+16
201751.94526733932,2.2963603938684812e+16,4.031218887154653e+16,5172145036227.614,261147209465.9701,788663663194.3499,13532161001128.465,175112871108926.34,1.7153717944842716e+16
221928.13979407327,2.2963604077414964e+16,4.202733829508587e+16,5172145067474.1045,261147211043.63913,788663667958.8989,13532161082877.768,175112872166617.03,1.8868867228474988e+16
244121.9537734806,2.2963604230012676e+16,4.391393629915654e+16,5172145101844.051,261147212779.0145,788663673199.7169,13532161172798.824,175112873330035.94,2.07554650786531e+16
268535.1491508287,2.2963604397863764e+16,4.598911380893465e+16,5172145139649.5205,261147214687.85355,788663678964.394,13532161271708.145,175112874609746.97,2.283064241915603e+16
295389.6640659116,2.2963604582492068e+16,4.827171191723752e+16,5172145181233.773,261147216787.4868,788663685305.2693,13532161380503.752,175112876017369.88,2.511324034126429e+16
324929.6304725028,2.2963604785573696e+16,5.078245228740474e+16,5172145226974.31,261147219096.97595,788663692279.9056,13532161500173.36,175112877565682.3,2.762398050662689e+16
357423.5935197531,2.2963605008951936e+16,5.354412446766191e+16,5172145277286.315,261147221637.28265,788663699951.6111,13532161631803.135,175112879268737.78,3.0385652461610612e+16
393166.95287172846,2.2963605254654176e+16,5.658179178110939e+16,5172145332626.363,261147224431.4615,788663708390.0082,13532161776587.691,175112881141993.1,3.342331952727116e+16
432484.6481589014,2.2963605524909736e+16,5.9923017616221064e+16,5172145393496.65,261147227504.8672,788663717671.6687,13532161935840.77,175112883202445.47,3.6764545089834376e+16
475734.11297479155,2.296360582217053e+16,6.3598114118393224e+16,5172145460449.37,261147230885.38168,788663727880.7942,13532162111007.191,175112885468788.12,4.043964129222371e+16
523308.52427227073,2.2963606149132756e+16,6.764041547485233e+16,5172145534091.799,261147234603.6676,788663739109.986,13532162303675.713,175112887961577.34,4.448194231894654e+16
