t(s),Total solute volume 1,Total retention volume 1,Total 1 volume 1,Total 2 volume 1,Total 3 volume 1,Total 4 volume 1,Total 5 volume 1,Total 6 volume 1
1.0,3440477833632967.0,3462957740548188.0,22479906915223.58,0.0,0.0,0.0,0.0,0.0
2.1,4155914866685364.5,6027903253592120.0,27154528795777.74,161463995769.17862,1182468366518.8916,42684848507556.336,995647009851219.1,805158067389907.6
3.3100000000000005,4451958620626835.0,8623476100968617.0,29088860944947.137,363175736023.19086,2659685326116.622,96010416720607.83,2236862818825824.2,1806532522788250.5
4.641000000000001,4605636573283129.0,1.1391517549832882e+16,30092984041519.625,592100213333.8594,4336196187948.5996,156548203189867.0,3647687259658092.5,2946624233258976.0
6.105100000000002,4695114707704355.0,1.4393077260633826e+16,30677629430349.105,846173871640.6444,6196889704091.595,223758250496589.3,5216358745347890.0,4220124864078899.0
7.7156100000000025,4751453885158860.0,1.7669897182265992e+16,31045746784297.74,1126257883465.8816,8248072225474.241,297871012702674.2,6948017413893074.0,5632134793618162.0
9.487171000000004,4789079863246981.0,2.1258584852338256e+16,31291593120100.523,1434330622106.5002,10504231878411.568,379413198681561.25,8854628091624519.0,7192233543164610.0
11.435888100000005,4815398390748167.0,2.5195321776091556e+16,31463557166950.668,1772944321538.698,12984059666487.094,469064845629491.56,1.0951820496033024e+16,8912817482525853.0
13.579476910000007,4834506992729844.0,2.951787962212928e+16,31588411923597.113,2145049824998.242,15709166014354.566,567613187892343.6,1.3257816685399126e+16,1.0808500128344902e+16
15.937424601000009,4848816141403854.0,3.4266703794531704e+16,31681907285252.848,2553948439155.733,18703728146295.96,675940138441291.4,1.5793119021935882e+16,1.2895888908880024e+16
18.53116706110001,4859814065301890.0,3.948563849152929e+16,31753767259465.938,3003288524846.0146,21994465096706.934,795021670198827.1,1.8580474821810056e+16,1.51935764133374e+16
21.384283767210015,4868459169501051.0,4.522250977573167e+16,31810254016553.973,3497083974748.739,25610773028480.188,925933101489551.5,2.1644986073395732e+16,1.7722213320325416e+16
24.522712143931017,4875391038937961.0,5.1529660301962664e+16,31855546573088.938,4039742556787.705,29584932814872.887,1069857104449263.9,2.501428711492022e+16,2.050464482171041e+16
27.97498335832412,4881049893408941.0,5.84644807189136e+16,31892521304178.094,4636100520757.012,33952363501043.773,1228093498987202.8,2.8718767277578624e+16,2.356608906361294e+16
31.772481694156536,4885747094006462.0,6.6089962084531976e+16,31923212628678.797,5291461926235.858,38751910351978.266,1402070443725614.8,3.2791828311062384e+16,2.693434965083063e+16
35.949729863572195,4889708291783383.0,7.44752842850113e+16,31949094940278.668,6011642144567.878,44026163479242.1,1593356904984956.2,3.727017304994102e+16,3.064005913773802e+16
40.544702849929415,4893100687277351.0,8.369645107400691e+16,31971260719814.89,6803015423623.411,49821806232371.54,1803676407215689.2,4.219412490015805e+16,3.4716952996980276e+16
45.59917313492236,4896050745000333.0,9.383698031778733e+16,31990536280850.125,7672566600378.571,56189993979059.36,2034922127978763.0,4.760797929238717e+16,3.92021750555607e+16
51.1590904484146,4898656000023278.0,1.0498865717510853e+17,32007558913311.375,8627947135125.21,63186764549046.74,2289173432949933.0,5.356038911380076e+16,4.413661635773717e+16
57.27499949325607,4900993109228688.0,1.172523577098081e+17,32022829489982.117,9677535677889.85,70873481886442.19,2568713966523615.5,6.010478666580688e+16,4.95652901211945e+16
64.00249944258168,4903123457999105.0,1.3073895056012638e+17,32036749100335.805,10830503386046.436,79317314517371.27,2876051428051575.5,6.729984507264981e+16,5.553774603442226e+16
71.40274938683986,4905097141264011.0,1.4557028463378333e+17,32049645062510.598,12096884201896.514,88591750365760.48,3213939175551130.0,7.52099823635335e+16,6.21085276738049e+16
79.54302432552385,4906955842591056.0,1.618802712886855e+17,32061789735157.34,13487650273467.594,98777149263925.9,3585399809175563.5,8.390591170583078e+16,6.933767734181524e+16
88.49732675807624,4908734953394709.0,1.7981607005582768e+17,32073414364251.883,15014792661032.418,109961334207126.23,3993750896385403.5,9.346524149473754e+16,7.729129317007776e+16
98.34705943388387,4910465160104347.0,1.9953938764063472e+17,32084719453581.09,16691407414166.8,122240221979844.64,4442633009710975.0,1.0397312921021738e+17,8.604214391175453e+16
109.18176537727226,4912173653807325.0,2.2122790068788534e+17,32095882668493.676,18531787026628.082,135718493214945.56,4936040256136816.0,1.155229931335335e+17,9.567034748149781e+16
121.09994191499949,4913885068926260.0,2.450768136044534e+17,32107064969178.66,20551517175103.44,150510301206921.1,5478353484184681.0,1.2821728616696045e+17,1.062641200010307e+17
134.20993610649944,4915622225589482.0,2.7130056359621187e+17,32118415461278.93,22767578518227.58,166740017852573.12,6074376360303729.0,1.4216833611161469e+17,1.1792060288687237e+17
148.6309297171494,4917406728791208.0,3.0013468598412474e+17,32130075310777.477,25198453168630.19,184543013896007.47,6729374509637290.0,1.5749925681650547e+17,1.3074677638681528e+17
164.49402268886433,4919259462655972.0,3.318378538124315e+17,32142180973499.29,27864235246679.316,204066469162254.47,7449117916918367.0,1.7434493459982634e+17,1.448604689476485e+17
181.94342495775078,4921201007848967.0,3.666941067404239e+17,32154866922450.035,30786744672639.453,225470206621200.84,8239926780270664.0,1.9285309424000992e+17,1.603914728940787e+17
201.13776745352587,4923252002946405.0,4.050152852075178e+17,32168268008994.445,33989643045827.477,248927541869644.06,9108721002978072.0,2.1318544861301466e+17,1.7748277813565498e+17
222.25154419887846,4925433465437778.0,4.471436868654175e+17,32182521560269.08,37498550085759.72,274626136886370.12,1.0063073494513378e+16,2.355189356817953e+17,1.9629193701513914e+17
245.47669861876633,4927767084332173.0,4.9345496326364794e+17,32197769291057.203,41341158661112.43,302768843629039.1,1.1111267430684372e+16,2.600470459854261e+17,2.1699257499162374e+17
271.024368480643,4930275493651799.0,5.4436127573343245e+17,32214159090782.0,45547345896766.17,333574519123177.25,1.2262357591729766e+16,2.8698124298228278e+17,2.397760636416589e+17
299.1268053287073,4932982534121424.0,6.003147303127657e+17,32231846733371.344,50149277216052.8,367278789060483.9,1.3526235854259136e+16,3.1655247751843635e+17,2.6485337449293686e+17
330.03948586157804,4935913508894619.0,6.618111123586875e+17,32250997548159.57,55181499433428.016,404134731494276.8,1.4913700855303744e+16,3.490127962525789e+17,2.9245713451343334e+17
364.0434344477359,4939095438052910.0,7.29393942160932e+17,32271788082770.684,60681018151729.4,444413445917633.94,1.6436531771136974e+16,3.846370419936672e+17,3.2284390670592096e+17
401.44777789250946,4942557315765653.0,8.03658873354718e+17,32294407783386.477,66687353729284.15,488404465770893.2,1.8107566056035076e+16,4.2372464150450976e+17,3.562967222511234e+17
442.5925556817604,4946330373330905.0,8.852584561721979e+17,32319060713440.246,73242568959773.44,536415964208169.7,1.994078086220633e+16,4.666014732852176e+17,3.9312789405756294e+17
487.8518112499365,4950448350772256.0,9.749072875030688e+17,32345967328215.117,80391260351320.06,588774693752150.9,2.195137770637823e+16,5.1362180404876474e+17,4.3368214547572077e+17
537.6369923749302,4954947779197242.0,1.0733875692769567e+18,32375366319757.387,88180503507421.03,645825590330983.9,2.4155869754813828e+16,5.651702778918246e+17,4.7834009239095955e+17
592.4006916124232,4959868275692998.0,1.1815550957431373e+18,32407516543705.562,96659741618368.89,707930961246043.4,2.6572170859726376e+16,6.216639363814784e+17,5.275221220068317e+17
652.6407607736655,4965252852109468.0,1.3003456887065024e+18,32442699036862.676,105880604499377.88,775469165095582.0,2.9219685188102904e+16,6.835542407354831e+17,5.8169271746218e+17
718.9048368510321,4971148238631545.0,1.4307820975721969e+18,32481219131396.266,115896644011868.92,848832679949709.8,3.211939592976624e+16,7.513290587618787e+17,6.413652840988292e+17
791.7953205361354,4977605222535009.0,1.5739813780371008e+18,32523408668248.97,126762970153608.83,928425444693519.2,3.529395114507339e+16,8.255145690144982e+17,7.071075408314833e+17
871.9748525897489,4984678986400294.0,1.7311627596847462e+18,32569628207005.156,138535770278312.88,1014659345056566.0,3.876774417898156e+16,9.066770191574225e+17,7.795475526184074e+17
960.1723378487239,4992429536880686.0,1.903656005646921e+18,32620269827439.12,151271695764066.62,1107949729426443.4,4.256698630974668e+16,9.954242836216744e+17,8.59380464483602e+17
1057.1895716335964,5000921994232766.0,2.0929102664756178e+18,32675759021284.156,165027091205357.66,1208709771751357.5,4.671976610960338e+16,1.0924070834676787e+18,9.473760822821265e+17
1163.9085287969563,5010227042087621.0,2.3005034163699576e+18,32736557631011.727,179857055538670.88,1317343603792478.8,5.1256093219787144e+16,1.1983198180236157e+18,1.0443873408675128e+18
1281.299381676652,5020421306773848.0,2.528151856060861e+18,32803166328304.047,195814311771012.7,1434238045534844.5,5.6207919297066904e+16,1.313900831785692e+18,1.151359828147694e+18
1410.4293198443174,5031587751017696.0,2.777720755026028e+18,32876127186464.93,212947872920602.94,1559752842587909.0,6.1609130155926904e+16,1.4399319756321088e+18,1.269342484644277e+18
1552.4722518287492,5043816058757560.0,3.0512346950444933e+18,32956026194772.977,231301493579889.28,1694209332439079.0,6.74955011190159e+16,1.5772372730337853e+18,1.399499637980721e+18
1708.7194770116243,5057203000376026.0,3.350888665454612e+18,33043495644884.992,250911903787997.2,1837877514544074.8,7.390460632733214e+16,1.7266804734618348e+18,1.5431245497510868e+18
1880.5914247127869,5071852764459765.0,3.679059348599581e+18,33139216298531.8,271806831657842.16,1990961570506945.0,8.087567126621846e+16,1.8891612414699807e+18,1.70165467548046e+18
2069.6505671840655,5087877238258694.0,4.0383166226615265e+18,33243919220021.242,294002834317352.94,2153583976435663.8,8.844935616962762e+16,2.0656096945418348e+18,1.8766888639818376e+18
2277.615623902472,5105396214218978.0,4.4314351996064804e+18,33358387125709.875,317502973598615.6,2325768472931469.5,9.666745631945554e+16,2.2569789670044634e+18,2.070006750234692e+18
2506.3771862927197,5124537494164176.0,4.861406309994182e+18,33483455064716.082,342294393764602.06,2507422310723097.0,1.055725036311453e+17,2.4642354430313093e+18,2.2835906256780306e+18
2758.0149049219917,5145436855753859.0,5.331449346273758e+18,33620010199760.027,368345883309726.6,2698318371059783.5,1.1520725241808827e+17,2.6883462717361746e+18,2.5196501009991813e+18
3034.816395414191,5168237837618679.0,5.845023384981557e+18,33768990403250.863,395605530941729.5,2898077965528205.5,1.2561403100679048e+17,2.930263755401273e+18,2.780649908248996e+18
3339.2980349556105,5193091289955592.0,6.405838529974598e+18,33931381320903.57,423998616016605.7,3106155340992391.5,1.3683394013965486e+17,3.1909061930958116e+18,3.0693412201108413e+18
3674.227838451172,5220154626320527.0,7.017867058502842e+18,34108211482998.99,453425903853290.25,3321825136545911.0,1.4890587912845046e+17,3.4711347729961687e+18,3.3887968925000294e+18
4042.6506222962894,5249590699958393.0,7.685354415704347e+18,34300544962398.37,483762543344445.8,3544174237666721.5,1.618653818664072e+17,3.771726146081227e+18,3.7424510597307735e+18
4447.915684525919,5281566214527691.0,8.412830198295698e+18,34509470990320.88,514857783772593.75,3772099616527885.5,1.7574324752037696e+17,4.0933403919797734e+18,4.1341435257097114e+18
4893.707252978511,5316249565070372.0,9.205119403144855e+18,34736089849382.99,546535734248603.2,4004313796494714.0,1.905639555566465e+17,4.4364842170309996e+18,4.5681693953715384e+18
5384.077978276362,5353807991555484.0,1.006735440005493e+19,34981494275042.19,578597376307390.8,4239359486337597.0,2.063438623532488e+17,4.801469419319453e+18,5.049334372033734e+18
5923.485776103998,5394403915923355.0,1.1004988329498194e+19,35246745522088.53,610824001169393.1,4475634646087004.0,2.230891877489371e+17,5.188366930993642e+18,5.583016101446944e+18
6516.834353714399,5438190326784545.0,1.2023810933207605e+19,35532843208578.47,642982171887286.9,4711428726793224.0,2.4079381524768778e+17,5.596957120002606e+18,6.17523186388863e+18
7169.5177890858395,5485305077436735.0,1.3129968203735454e+19,35840688059463.555,674830203015397.9,4944970040934738.0,2.5943694997730704e+17,6.026677514875074e+18,6.832712792873629e+18
7887.469567994424,5535863977732855.0,1.4329987688520276e+19,36171036769327.95,706126006506961.4,5174483168017955.0,2.78980704470313e+17,6.476569715477454e+18,7.562984624383479e+18
8677.216524793868,5589952595286878.0,1.5630811796583526e+19,36524448432029.055,736635978306767.0,5398254024752544.0,2.9936771411692595e+17,6.94522796812703e+18,8.374454747292782e+18
9545.938177273256,5647616744947378.0,1.7039842011429302e+19,36901222399572.05,766144409691692.8,5614698833932441.0,3.2051892131802835e+17,7.430752697173561e+18,9.27650503172674e+18
10501.531995000581,5708851747130508.0,1.8564997475017253e+19,37301328096798.03,794462724246002.5,5822431881781762.0,3.423317085090069e+17,7.93071315527673e+18,1.0279589563550206e+19
11552.68519450064,5773590685501954.0,2.021479191658406e+19,37724328297890.93,821437697786839.5,6020325896534701.0,3.646786024195872e+17,8.442124205903847e+18,1.1395336029652482e+19
12708.953713950705,5841692100810469.0,2.199843327376662e+19,38169298718732.08,846957752990214.4,6207558392730568.0,3.874068102673862e+17,8.961442966404216e+18,1.26366491195498e+19
13980.849085345777,5912927823139015.0,2.3925950483969077e+19,38634748513665.44,870956471391444.5,6383637688563566.0,4.10338875676902e+17,9.484591451534146e+18,1.4017814000026442e+19
15379.933993880357,5986971961355324.0,2.6008351683049603e+19,39118548333306.88,893412662204092.2,6548403733979738.0,4.3327474790333466e+17,1.0007011249239636e+19,1.5554597779000758e+19
16918.927393268394,6063392410199651.0,2.8257817301122327e+19,39617874832404.71,914346678871062.0,6702001451956087.0,4.559955299741724e+17,1.0523755379434189e+19,1.7264347033298078e+19
18611.820132595236,6141646551085522.0,3.06879301745646e+19,40129182579098.93,933813157645311.8,6844827830133535.0,4.7826909607181946e+17,1.1029620574022027e+19,1.9166080087749288e+19
20474.00214585476,6221083030667665.0,3.331394273835541e+19,40648215675855.0,951890906304559.2,6977458056726845.0,4.998576338267402e+17,1.1519320068263324e+19,2.128057395605598e+19
22522.40236044024,6300951491011730.0,3.6153078668551545e+19,41170071335564.42,968671196699242.4,7100559852466527.0,5.205269670054397e+17,1.1987692548957157e+19,2.3630447799977406e+19
24775.642596484264,6380421771762496.0,3.922486321467637e+19,41689325346990.18,984246090449915.6,7214807917221273.0,5.4005725392789626e+17,1.2429937358898215e+19,2.624024743674547e+19
27254.206856132692,6458613301317830.0,4.25514732981346e+19,42200224114435.13,998698535292400.9,7320811223239910.0,5.5825436041167763e+17,1.28418599715658e+19,2.9136538642873143e+19
29980.627541745966,6534634103777100.0,4.615809585744117e+19,42696939526218.1,1012095733967108.2,7419064183029852.0,5.749609189998942e+17,1.3220106116260096e+19,3.2348020331220955e+19
32979.69029592056,6607627164651866.0,5.007328163087613e+19,43173871904830.36,1024486708942580.5,7509928498973664.0,5.900658756212381e+17,1.3562359120437953e+19,3.590567141857243e+19
36278.65932551262,6676820088778548.0,5.4329282303797764e+19,43625974468210.99,1035904163070080.9,7593646479849391.0,6.035112681262319e+17,1.3867474559055976e+19,3.984294647990951e+19
39907.525258063884,6741572483275088.0,5.8962362192081306e+19,44049062926758.98,1046369855177058.0,7670380151428409.0,6.152951450719142e+17,1.4135530397770973e+19,4.4196034277685715e+19
43899.277783870275,6801414818055956.0,6.40130813772308e+19,44440069395484.14,1055902000059429.9,7740265275983015.0,6.254699450918967e+17,1.4367779897861333e+19,4.900418951211406e+19
48290.20556225731,6856073071667259.0,6.9526554783190155e+19,44797203428600.65,1064522863809193.4,7803466894655127.0,6.34136279436119e+17,1.4566507719975735e+19,5.431014192374474e+19
53120.22611848305,6905475378584246.0,7.55526997703652e+19,45119995453063.43,1072264853215737.4,7860223921815582.0,6.414327811101861e+17,1.4734804580236364e+19,6.01605793248696e+19
58433.24873033136,6949739843372290.0,8.214649171196802e+19,45409217147753.414,1079173941124497.5,7910874284283236.0,6.47523337768557e+17,1.4876289103011447e+19,6.6606694073902105e+19
64277.57360336451,6989145968616899.0,8.936825109286158e+19,45666694756128.625,1085310045213145.8,7955857773909776.0,6.525834408212599e+17,1.4994813738085124e+19,7.370477793347274e+19
70706.33096370097,7024094875423980.0,9.728398593487267e+19,45895049170176.836,1090744740098537.0,7995699370395259.0,6.567874439582008e+17,1.5094192457216004e+19,8.151684959966328e+19
77777.96406007107,7055064950374627.0,1.0596580980198947e+20,46097406130946.4,1095557217439313.2,8030979717164299.0,6.602982155552969e+17,1.5177981161150452e+19,9.011130272599268e+19
85556.76046607818,7082569433082276.0,1.1549244929959726e+20,46277119108629.82,1099829606071776.0,8062300889008202.0,6.632600857003716e+17,1.5249329288436484e+19,9.956356894841317e+19
94113.436512686,7107120980038892.0,1.2594984757377835e+20,46437537765048.68,1103642641670529.4,8090254700488137.0,6.657952988360302e+17,1.5310906534723936e+19,1.0995679828435865e+20
103525.78016395462,7129205999260704.0,1.3743186368366158e+20,46581840257734.28,1107072345616912.2,8115398392505518.0,6.680035688594555e+17,1.5364895656322886e+19,1.2138256619990134e+20
113879.3581803501,7149269256484874.0,1.500410632567764e+20,46712932657543.84,1110187981910450.8,8138239672350154.0,6.699639286065994e+17,1.5413033851185869e+19,1.3394162106714056e+20
125268.29399838512,7167707473018246.0,1.6388959413215956e+20,46833407117102.38,1113051230706590.5,8159230662201346.0,6.717379209207813e+17,1.5456682258868888e+19,1.4774468712959653e+20
137796.12339822366,7184869643540625.0,1.7910014149168143e+20,46945543947000.7,1115716312444042.9,8178768773840284.0,6.733732626481586e+17,1.5496905029691472e+19,1.629133368990687e+20
151576.73573804603,7201061580604383.0,1.9580695942261545e+20,47051341308998.055,1118230723020824.2,8197202241900034.0,6.74907340979712e+17,1.5534544366282742e+19,1.795809441694664e+20
166735.40931185064,7216552525389459.0,2.1415697888039656e+20,47152558410062.42,1120636276949033.8,8214837550735821.0,6.763701748874675e+17,1.5570283825010237e+19,1.9789372570158734e+20
183409.95024303574,7231582268486485.0,2.3431099472006306e+20,47250762028965.33,1122970210594918.6,8231947664331376.0,6.777867141950867e+17,1.5604697295974349e+19,2.1801187695898876e+20
201751.94526733932,7246367857225180.0,2.564449362858482e+20,47347370341437.48,1125266228613078.0,8248779659515528.0,6.791785132513729e+17,1.5638284571401794e+19,2.4011080544007917e+20
221928.13979407327,7261109477365702.0,2.8075122682700392e+20,47443691350711.84,1127555417284470.0,8265561419927931.0,6.805648994323611e+17,1.5671496152888187e+19,2.6438246410467764e+20
244121.9537734806,7275995433960480.0,3.074402368524108e+20,47540955432126.086,1129867017971312.8,8282507304998957.0,6.819637766758054e+17,1.5704750334714964e+19,2.910367868303088e+20
268535.1491508287,7291206333851750.0,3.3674183567076544e+20,47640342661288.26,1132229076599294.8,8299822910445326.0,6.833921871470715e+17,1.5738445203327754e+19,3.203032273816263e+20
295389.6640659116,7306918637361030.0,3.689070439898269e+20,47743006020589.89,1134668995185321.5,8317709110905593.0,6.84866715968184e+17,1.5772967508394768e+19,3.524324027257136e+20
324929.6304725028,7323307747615750.0,4.0420978869541785e+20,47850091584678.72,1137214011567450.5,8336365576381545.0,6.864038406351532e+17,1.5808699655922647e+19,3.876978404614327e+20
357423.5935197531,7340550775795359.0,4.4294875887579877e+20,47962756588409.75,1139891628810032.5,8355993919844237.0,6.880201685383388e+17,1.584602586062753e+19,4.26397828447552e+20
