t(s),Total solute volume 1,Total retention volume 1,Total 1 volume 1,Total 2 volume 1,Total 3 volume 1,Total 4 volume 1,Total 5 volume 1,Total 6 volume 1
1.0,3048960015052811.5,3059211791922458.0,10251776869658.717,0.0,0.0,0.0,0.0,0.0
2.1,4685825211566395.0,4701672586516484.0,15755545419657.941,8509162.006199095,52334948.59788608,1481882687.7495518,36353674900.49712,53933128715.832
3.3100000000000005,6003534781309484.0,6023966526119221.0,20186190378710.426,22890215.70709247,140784253.0498732,3986360077.816884,97684909898.22614,143719486567.35397
4.641000000000001,7181722342368750.0,7206331414243681.0,24147708921948.695,43151445.02016919,265398880.68381083,7515265906.35903,184045777879.37067,269493358840.98
6.105100000000002,8287410120820473.0,8316020369906590.0,27865455443115.848,69803285.12202208,429318223.6700345,12157956562.504377,297628131140.98663,434508433763.46674
7.7156100000000025,9354300593985272.0,9386857501164474.0,31452750578531.06,103620809.35105316,637309292.9153731,18049996728.006046,441750034774.39386,643615639083.1321
9.487171000000004,1.0402421768707364e+16,1.0438948707398822e+16,34976936159196.258,145591082.470315,895442924.965225,25364051878.83924,620635013647.4781,902962432713.8302
11.435888100000005,1.1445082678485968e+16,1.1485660516261214e+16,38482762255153.18,196907210.4367116,1211057187.7567225,34308917998.090202,839389135619.4983,1219969502077.2397
13.579476910000007,1.2491891711323892e+16,1.2536648702299106e+16,42002535949170.664,258980808.18033162,1592834063.066444,45131772617.62037,1104056351633.5637,1603415086909.0293
15.937424601000009,1.3550254641052048e+16,1.359936159907161e+16,45561158291424.71,333464696.1045537,2050939038.7317188,58122227218.898735,1421717514636.6082,2063575582550.014
18.53116706110001,1.4626193242396334e+16,1.4679861774022772e+16,49178876796364.01,422283117.5764173,2597206956.523441,73617715043.21248,1800621424336.223,2612396200641.522
21.384283767210015,1.5724826283200126e+16,1.578330897770673e+16,52872902721785.63,527668685.17723715,3245369241.4821987,92010081709.15501,2250343881448.526,3263664783736.0684
24.522712143931017,1.6850668123183058e+16,1.6914260080886508e+16,56658415070398.82,652206061.21075,4011322543.243181,113753384547.65512,2781973399085.496,4033152320814.7065
27.97498335832412,1.8007820967068446e+16,1.8076862259269828e+16,60549207015526.59,798882736.4971058,4913441023.0008335,139372968622.54337,3408322886986.5747,4938677006489.89
31.772481694156536,1.920009922143472e+16,1.927497796823233e+16,64558104032317.195,971147384.5889175,5972935213.560211,169475907528.04474,4144166385555.9976,6000056389613.113
35.949729863572195,2.0431104378110036e+16,2.051226018339655e+16,68697215679263.01,1172976160.2377021,7214259712.716648,204762880487.3847,5006499229420.235,7238940261402.5625
40.544702849929415,2.1704256943321428e+16,2.179218448056498e+16,72978042950713.53,1408946937.3631907,8665569672.901445,246041497298.5056,6014818953407.419,8678559325525.44
45.59917313492236,2.302278452776658e+16,2.3118037136582884e+16,77411438226099.88,1684320786.0260134,10359221772.911179,294240969741.95605,7191422651449.55,10343463426473.94
51.1590904484146,2.438966125464004e+16,2.4492854473670388e+16,82007401532942.22,2005128946.6933599,12332308957.267282,350427857770.3642,8561714102248.306,12259338099421.822
57.27499949325607,2.5807493106399636e+16,2.5919308110243788e+16,86774695037543.84,2378262222.4768834,14627210006.57718,415822398697.1633,10154510663444.611,14452970272215.21
64.00249944258168,2.727834677561571e+16,2.7399533688581252e+16,91720267577745.95,2811558214.9821696,17292125812.23411,491814680590.2146,12002335924319.918,16952391098825.873
71.40274938683986,2.8803525556465396e+16,2.8934906588606084e+16,96848501129252.67,3313880390.839297,20381565385.869278,579979683163.5128,14141680011222.791,19787175871221.887
79.54302432552385,3.0383303625341692e+16,3.052577593780471e+16,102160317363290.86,3895181826.151671,23956737627.832508,682090021993.5073,16613206159305.232,22988846999007.523
88.49732675807624,3.2016637969556116e+16,3.217117615211007e+16,107652209051206.97,4566545843.817,28085800993.890762,800125130932.5543,19461880631275.113,26591315393809.125
98.34705943388387,3.3700883401110936e+16,3.386854145258569e+16,113315281844187.2,5340195758.03574,32843923198.776096,936275624903.6835,22737003963228.8,30631305923469.11
109.18176537727226,3.543153916576752e+16,3.5613451912207816e+16,119134402289645.86,6229466593.818787,38313107117.77977,1092941704980.8406,26492125092895.594,35148734779027.227
121.09994191499949,3.720205511019069e+16,3.739943906814747e+16,125087546105089.89,7248732905.748721,44581746778.436646,1272724690715.466,30784825960611.652,40187030720650.17
134.20993610649944,3.900372163283791e+16,3.9217875412784616e+16,131145428164676.88,8413288618.489115,51743888396.76037,1478411079518.135,35676372161848.78,45793411363677.836
148.6309297171494,4.082566185321104e+16,4.105796628743888e+16,137271476181949.61,9739177152.79089,59898185812.62642,1712948938118.796,41231234665014.695,52019137079835.016
164.49402268886433,4.265493795571928e+16,4.29068562178567e+16,143422188289402.22,11242973092.601637,69146558076.46266,1979416943565.6887,47516498252346.65,58919769120836.37
181.94342495775078,4.44767775728326e+16,4.47498556300539e+16,149547894233263.75,12941520487.324263,79592580537.51945,2280987043894.8438,54601184329446.78,66555457513719.14
201.13776745352587,4.62749207707042e+16,4.657078857707245e+16,155593922076109.44,14851637757.00758,91339670741.37744,2620882535382.8384,62555529422853.96,74991281025341.0
222.25154419887846,4.803208332637942e+16,4.835245723039419e+16,161502155911442.97,16989805098.083725,104489166888.18294,3002334362376.5024,71450276182357.88,84297658586673.94
245.47669861876633,4.973052663247073e+16,5.007721353549193e+16,167212952094906.6,19371856943.275074,119138437505.48398,3428539588790.734,81356050423941.88,94550850619280.8
271.024368480643,5.135271773794119e+16,5.172762159963291e+16,172667358541330.5,22012708588.192646,135379201290.87032,3902627137976.6953,92342913890479.47,105833570212054.9
299.1268053287073,5.288205417313876e+16,5.328718550653873e+16,177809551845022.16,24926151203.497215,153296267450.23734,4427636830833.9,104480194771104.11,118235727534368.4
330.03948586157804,5.430361759973997e+16,5.4741106618050744e+16,182589371315054.4,28124751329.54122,172966918384.9211,5006518178316.282,117836702179572.25,131855334968049.95
364.0434344477359,5.560490926867909e+16,5.607702332166714e+16,186964791838319.28,31619887685.7214,194461136500.48242,5642154981282.952,132481421676075.5,146799603468198.8
401.44777789250946,5.6776510943239896e+16,5.728567679690817e+16,190904146126702.22,35421948105.25186,217842815302.04773,6337420274579.581,148484761792610.88,163186260710941.44
442.5925556817604,5.781261003111165e+16,5.836144138769206e+16,194387890384590.1,39540691862.39698,243171987101.68045,7095263367688.729,165920373328079.34,181145116820949.56
487.8518112499365,5.8711329775108584e+16,5.930266019666288e+16,197409714513902.44,43985758241.278725,270507949572.33658,7918826747699.121,184867494103803.12,200819892481097.66
537.6369923749302,5.947481634066228e+16,6.011173743508708e+16,199976834920672.44,48767273394.92836,299912996352.0912,8811585787329.668,205413686906319.4,222370306540790.22
592.4006916124232,6.010905497028733e+16,6.079495934395907e+16,202109376350558.5,53896478793.21397,331456280175.1884,9777499233815.44,227657748316487.38,245974397011967.38
652.6407607736655,6.062341560377115e+16,6.136204371709548e+16,203838844094543.9,59386281792.53239,365217197055.4187,10821154305814.578,251712487446718.3,271831023998354.0
718.9048368510321,6.102996095381896e+16,6.182545068607559e+16,205205797488035.25,65251618417.85879,401287615841.201,11947887960475.371,277707026027102.38,300162481546723.25
791.7953205361354,6.134258168201016e+16,6.21995191808747e+16,206256942061862.44,71509525405.6435,439772320215.24426,13163866410381.549,305788273268992.6,331217135277559.94
871.9748525897489,6.157604788795523e+16,6.249951820566276e+16,207041940310026.28,78178844857.51434,480787191882.76715,14476108684220.861,336121291361496.25,365272011315158.8
960.1723378487239,6.174507801235603e+16,6.274071415538059e+16,207610281010082.2,85279527870.49022,524454928128.8502,15892446598961.984,368888387393450.3,402635293566092.0
1057.1895716335964,6.186352201990379e+16,6.2937551367946264e+16,208008532793505.3,92831555753.52028,570898408114.7233,17421421770041.4,404286924942065.5,443648738572971.7
1163.9085287969563,6.194373535166903e+16,6.310302289382874e+16,208278239151325.7,100853547938.3249,620232132757.8175,19072128402822.785,442526008744646.2,488690080180168.7
1281.299381676652,6.199618744924161e+16,6.324827585392046e+16,208454602153868.16,109361162927.69832,672552391989.2327,20854016572347.344,483822317931448.2,538175554466233.5
1410.4293198443174,6.2029310593231016e+16,6.338245765855273e+16,208565974193400.53,118365414241.90407,727926909229.8242,22776672941913.37,528395413461201.1,592562712401658.8
1552.4722518287492,6.20495595970964e+16,6.351277400755777e+16,208634058697978.0,127871015211.1305,786384663075.071,24849593833553.62,576462809570287.9,652353692681263.6
1708.7194770116243,6.2061627731147e+16,6.364470419751706e+16,208674636147177.5,137874839807.75244,847906422323.9458,27081959942497.53,628234989259815.5,718099099758394.1
1880.5914247127869,6.206875320961857e+16,6.378230797734306e+16,208698594593363.5,148364552353.55093,912416319257.2761,29482414537907.246,683910394946848.4,790402582774706.8
2069.6505671840655,6.207305369555059e+16,6.392856112167505e+16,208713054388740.9,159317429492.17712,979774605048.8047,32058839924717.754,743670282788721.2,869926156987739.8
2277.615623902472,6.207584000777277e+16,6.408567052412907e+16,208722422982244.16,170699383174.57693,1049771641179.8936,34818122168620.61,807673232843431.0,957396267337584.8
2506.3771862927197,6.207787801006859e+16,6.4255339788180856e+16,208729275486033.2,182464194565.7613,1122123188401.2263,37765893121428.29,876049358574596.6,1053612663547125.9
2758.0149049219917,6.2079593621144056e+16,6.443896562988093e+16,208735043993464.5,194553011099.07275,1196467311285.8042,40906237489467.32,948892321448623.2,1159447385482876.2
3034.816395414191,6.208120453538859e+16,6.463778516706051e+16,208740460472129.3,206894113274.54056,1272362947260.28,44241365358616.09,1026253372621962.6,1275866176158737.5
3339.2980349556105,6.208281792920627e+16,6.485296339685493e+16,208745885288018.53,219403123006.9659,1349291185282.277,47771244176549.67,1108131522743212.1,1403928121132476.5
3674.227838451172,6.2084482642491064e+16,6.508564574978505e+16,208751482658588.4,231983688934.41666,1426659480471.9478,51493199018141.34,1194464286311091.0,1544795496136796.2
4042.6506222962894,6.208621488016545e+16,6.533699511027106e+16,208757307070675.6,244528770774.13382,1503809554411.048,55401494244806.23,1285119028325403.5,1699754062139565.8
4447.915684525919,6.208802079823793e+16,6.560820042877592e+16,208763379223015.38,256922668497.39145,1580029871466.8586,59486910691239.93,1379881550324817.2,1870210837758940.8
4893.707252978511,6.2089897550075816e+16,6.590049087614106e+16,208769689544194.3,269043760949.0732,1654572482590.6743,63736341913077.12,1478447756377064.0,2057715921987360.2
5384.077978276362,6.209183850607603e+16,6.6215144157257336e+16,208776215743078.9,280768035661.1956,1726674732601.738,68132438647552.664,1580415147865171.2,2263974406157202.5
5923.485776103998,6.209383434904482e+16,6.655349644491562e+16,208782926491880.2,291973302098.53705,1795585170914.5637,72653332070725.8,1685276406881362.2,2490861871953817.5
6516.834353714399,6.209587346445355e+16,6.691695597928815e+16,208789782738335.75,302543941703.04535,1860592763487.8247,77272473821913.92,1792415689774099.5,2740441431795041.5
7169.5177890858395,6.2097942100601304e+16,6.730702194403613e+16,208796738244233.66,312375947932.2539,1921057888186.442,81958633307378.2,1901108569529328.2,3014982468517746.0
7887.469567994424,6.210002450738978e+16,6.7725310003696e+16,208803740052022.2,321381921746.19385,1976443056158.9153,86676093897525.34,2010526591494292.0,3316981245884522.5
8677.216524793868,6.210210314346509e+16,6.8173585728466824e+16,208810729181303.53,329495618312.6793,2026340873284.5295,91385087339040.92,2119747353862765.2,3649183578127022.5
9545.938177273256,6.210415899125865e+16,6.865380693382904e+16,208817641688102.9,336675605362.7652,2070496538422.071,96042498804708.3,2227770864346841.5,4014609765586987.5
10501.531995000581,6.210617199673595e+16,6.916817565613683e+16,208824410143476.03,342907608446.3261,2108822266321.0723,100602862414008.53,2333542632467388.5,4416582024501278.5
11552.68519450064,6.210812163662393e+16,6.971920003555341e+16,208830965540726.72,348205194824.514,2141401493437.3604,105019648066232.44,2435983516470442.0,4858754662163898.0
12708.953713950705,6.210998760297303e+16,7.030976577643975e+16,208837239597154.5,352608588757.3597,2168481592152.3345,109246815010595.81,2534025754489702.0,5345147274188226.0
13980.849085345777,6.21117505808703e+16,7.094321612466961e+16,208843167369008.5,356181606952.4074,2190455024308.3772,113240576740083.08,2626653894554772.0,5880181268504234.0
15379.933993880357,6.211339308005954e+16,7.162343849803299e+16,208848690047697.06,359006930241.79865,2207830262837.6543,116961287878103.89,2712948551666969.5,6468720051187556.0
16918.927393268394,6.2114900266581176e+16,7.23549551240919e+16,208853757756061.47,361180150038.4814,2221195178494.902,120375330570590.72,2792130151483593.0,7116113242371997.0
18611.820132595236,6.211626072853591e+16,7.314301440839443e+16,208858332123153.9,362803203196.13446,2231176665379.1035,123456850738925.89,2863599190599375.5,7828245326528389.0
20474.00214585476,6.211746710341084e+16,7.399367942589006e+16,208862388393531.75,363977897127.42786,2238400821528.274,126189179528994.58,2926969195285566.5,8611589180552424.0
22522.40236044024,6.2118516495740984e+16,7.491391004952082e+16,208865916831591.9,364800203316.85114,2243457855007.9263,128565778482226.55,2982088634642677.0,9473264965764848.0
24775.642596484264,6.211941062528221e+16,7.591163591636717e+16,208868923219776.34,365355860135.7175,2246875041981.655,130590572968198.05,3029048647382134.5,1.0421104916612806e+16
27254.206856132692,6.212015566801058e+16,7.699581872197811e+16,208871428323961.8,365717600588.51953,2249099677829.376,132277588782927.23,3068174609304795.0,1.1463724610277426e+16
29980.627541745966,6.212076178384737e+16,7.817650415453707e+16,208873466305491.0,365944055100.0325,2250492329477.767,133649878515844.1,3100001231071282.5,1.2610601358412566e+16
32979.69029592056,6.212124236235791e+16,7.946486592894834e+16,208875082184946.16,366080131423.21954,2251329171770.271,134737809004447.69,3125232840243306.0,1.3872160425854582e+16
36278.65932551262,6.212161305502571e+16,8.087324653473984e+16,208876328588297.25,366158494383.91315,2251811087645.2446,135576865799094.89,3144692463395309.5,1.5259869852349566e+16
39907.525258063884,6.212189069302462e+16,8.24152010807467e+16,208877262108062.6,366201687423.0576,2252076715260.1113,136205199165985.8,3159264915012468.5,1.6786344733032816e+16
43899.277783870275,6.212209221040919e+16,8.410555150363771e+16,208877939682682.25,366224457202.7871,2252084019049.013,136661173624762.25,3169839968792061.5,1.846546190265278e+16
48290.20556225731,6.212223355749967e+16,8.596046189827731e+16,208878414942924.6,366225290462.4162,2252089142027.7373,136981178818404.22,3177261592497300.5,2.03124888400864e+16
53120.22611848305,6.21223294993055e+16,8.799752323227714e+16,208878737534112.7,366225856051.9392,2252092619338.9863,137197914490801.06,3182288162753083.0,2.2344210599718348e+16
58433.24873033136,6.2122392011094744e+16,9.023589639314363e+16,208878947721446.8,366226224567.1319,2252094885013.9634,137339274059548.14,3185566597062374.0,2.4579101242095828e+16
64277.57360336451,6.212243119518462e+16,9.269645600569552e+16,208879079472584.78,366226455562.4783,2252096305200.6616,137427865456596.44,3187621222786534.0,2.7037478320034444e+16
70706.33096370097,6.212245474705816e+16,9.540198012844136e+16,208879158662535.9,366226594403.8613,2252097158813.896,137481096176133.6,3188855757832122.5,2.9741691044959212e+16
77777.96406007107,6.212246829039994e+16,9.837736629522296e+16,208879204200168.3,366226674243.6356,2252097649678.2725,137511691859940.89,3189565337519758.5,3.2716323446919284e+16
85556.76046607818,6.212247572548395e+16,1.0164987419351736e+17,208879229199620.9,366226718074.431,2252097919155.1826,137528476082920.5,3189954599664139.5,3.598841783844954e+16
94113.436512686,6.212247975264491e+16,1.0524938443619347e+17,208879242740398.06,366226741815.0732,2252098065115.454,137528484898803.75,3190157954183539.5,3.958772067691885e+16
103525.78016395462,6.212248306222481e+16,1.0920862046134182e+17,208879253868407.28,366226761325.48004,2252098185067.7393,137528492143539.55,3190158102096456.5,4.3546953226062424e+16
113879.3581803501,6.212248314566802e+16,1.1356377475871602e+17,208879254148973.62,366226761817.3887,2252098188092.0547,137528492326198.81,3190158105824633.5,4.7902107435798296e+16
125268.29399838512,6.212248315557896e+16,1.1835444366220131e+17,208879254182297.97,366226761875.81525,2252098188451.268,137528492347894.17,3190158106267436.5,5.2692776328874376e+16
137796.12339822366,6.212248316705351e+16,1.2362417841454635e+17,208879254220879.22,366226761943.45825,2252098188867.15,137528492373011.8,3190158106780098.5,5.796251106916818e+16
151576.73573804603,6.21224831797421e+16,1.2942088537644003e+17,208879254263543.16,366226762018.2589,2252098189327.0376,137528492400787.62,3190158107347008.0,6.375921801773526e+16
166735.40931185064,6.212248319370033e+16,1.3579726150296378e+17,208879254310476.22,366226762100.54626,2252098189832.939,137528492431342.56,3190158107970647.5,7.013559412959893e+16
183409.95024303574,6.212248320905453e+16,1.4281127338895624e+17,208879254362102.88,366226762191.06067,2252098190389.4355,137528492464953.3,3190158108656650.0,7.714960599946542e+16
201751.94526733932,6.212248322594407e+16,1.5052668422119696e+17,208879254418891.56,366226762290.6277,2252098191001.5845,137528492501924.97,3190158109411253.0,8.48650168139675e+16
221928.13979407327,6.2122483244522696e+16,1.5901363342341766e+17,208879254481359.25,366226762400.14966,2252098191674.942,137528492542593.81,3190158110241316.0,9.335196599667624e+16
244121.9537734806,6.212248326495893e+16,1.6834927426283686e+17,208879254550073.38,366226762520.6252,2252098192415.6387,137528492587329.33,3190158111154382.0,1.0268760681463112e+17
268535.1491508287,6.2122483287439e+16,1.7861847521373987e+17,208879254625659.47,366226762653.14764,2252098193230.403,137528492636538.47,3190158112158756.5,1.1295680774192398e+17
295389.6640659116,6.212248331216711e+16,1.8991459145306115e+17,208879254708804.06,366226762798.9224,2252098194126.6396,137528492690668.42,3190158113263567.0,1.2425292395527451e+17
324929.6304725028,6.212248333936781e+16,2.023403135002454e+17,208879254800262.62,366226762959.2753,2252098195112.506,137528492750211.66,3190158114478858.5,1.3667864597389002e+17
357423.5935197531,6.212248336928857e+16,2.1600860071470624e+17,208879254900867.47,366226763135.6624,2252098196196.954,137528492815709.02,3190158115815681.0,1.503469331569261e+17
393166.95287172846,6.212248340220152e+16,2.3104370813531446e+17,208879255011532.72,366226763329.6876,2252098197389.853,137528492887755.97,3190158117286181.5,1.6538204054296685e+17
432484.6481589014,6.2122483438405784e+16,2.475823159944786e+17,208879255133264.47,366226763543.1164,2252098198702.036,137528492967007.64,3190158118903734.0,1.8192064836410624e+17
475734.11297479155,6.21224834782304e+16,2.6577477217232538e+17,208879255267169.25,366226763777.88763,2252098200145.4336,137528493054184.39,3190158120683046.0,2.0011310450012714e+17
523308.52427227073,6.212248352203745e+16,2.8578645888261715e+17,208879255414464.22,366226764036.1363,2252098201733.173,137528493150078.89,3190158122640277.0,2.2012479116440954e+17
