t(s),Total solute volume 1,Total retention volume 1,Total 1 volume 1,Total 2 volume 1,Total 3 volume 1,Total 4 volume 1,Total 5 volume 1,Total 6 volume 1
1.0,6154611055248327.0,8126122601203629.0,1971511545955295.2,0.0,0.0,0.0,0.0,0.0
2.1,9454294484826272.0,1.248921283653176e+16,3028291878602919.0,31370564182.067726,463338570309.8665,1730854376395.4739,3666513389354.225,734396202319.0718
3.3100000000000005,1.2107272834957808e+16,1.6003114757566512e+16,3877955636191102.5,84347895300.2581,1239558973790.0376,4646146479352.76,9927267590460.701,1988965478685.3013
4.641000000000001,1.4475872283696088e+16,1.9146271018845748e+16,4636550021759116.0,158936603181.57462,2328995658887.8438,8748782747896.946,18836945573541.125,3775052806980.1196
6.105100000000002,1.6695061660179456e+16,2.2097342444099104e+16,5347297730457155.0,256983336290.45908,3758788559877.0864,14144968230097.312,30673506219000.25,6148807117234.832
7.7156100000000025,1.8832466515407308e+16,2.4946265790956772e+16,6031855196742858.0,381298000762.49756,5569860708807.323,20986776592028.492,45818833670610.59,9187309834310.877
9.487171000000004,2.092803539479275e+16,2.7746579735578548e+16,6703015662724283.0,535456532160.76056,7814138569354.082,29460771000705.188,64734557725389.29,12983754233878.775
11.435888100000005,2.3008083021398428e+16,3.0533955702105844e+16,7369206311588715.0,723774979980.803,10554207877036.354,39785775055963.414,87956299238753.5,17646311966923.523
13.579476910000007,2.509138218254837e+16,3.3334242406231772e+16,8036439099784904.0,951350575588.7947,13863917473253.908,52213881642158.44,116093800718121.86,23298173489385.152
15.937424601000009,2.7192184412282416e+16,3.61674615986847e+16,8709278088078451.0,1224139436901.3428,17829503741422.527,67033291425485.125,149833994203366.66,30078169516474.37
18.53116706110001,2.932186715279264e+16,3.904999514600044e+16,9391366925592678.0,1549060701354.1965,22551092316610.824,84572619842891.33,189946437578647.72,38141857175467.44
21.384283767210015,3.148989741863628e+16,4.199587467628482e+16,1.0085737453992658e+16,1934123879482.2432,28144532091871.027,105206611799245.02,237291408546221.53,47663127339089.305
24.522712143931017,3.3704426035864292e+16,4.501758914573027e+16,1.0795000007540016e+16,2388579147177.936,34743557490575.203,129363249284216.66,292831261493095.5,58836454910935.59
27.97498335832412,3.597266846615631e+16,4.812661692951602e+16,1.1521465368520756e+16,2923091746224.901,42502295180114.42,157532170626290.25,357645625846156.25,71879911440302.81
31.772481694156536,3.8301155508011656e+16,5.133379260396547e+16,1.2267225051135592e+16,3549942535959.1978,51598143566902.88,190274225498123.03,432950729523607.0,87039003693785.08
35.949729863572195,4.0695765611275944e+16,5.464957063691577e+16,1.3034161588691968e+16,4283242969297.9756,62234778584534.31,228251475959552.1,520255053314512.7,104618886119979.86
40.544702849929415,4.316231666135404e+16,5.808422278147741e+16,1.382413825631945e+16,5139244613028.883,74646845694053.4,272163033576711.9,620924706227929.0,124894033692138.9
45.59917313492236,4.570603072453322e+16,6.164799198804518e+16,1.4638827386665484e+16,6136577866780.841,89103061351357.28,322863864678364.3,736795866154763.5,148234506795431.72
51.1590904484146,4.833190173176621e+16,6.5351217409278216e+16,1.5479828256301042e+16,7296617849682.107,105911592718503.52,381313027548379.4,869913745224963.9,175052437869431.5
57.27499949325607,5.104469520753502e+16,6.920444022255559e+16,1.6348666982835942e+16,8643864328717.677,125425474246202.92,448600110380363.6,1022594182710400.4,205814400518933.88
64.00249944258168,5.384895958810958e+16,7.321849696916843e+16,1.7246800145099808e+16,10206373519609.354,148048766614919.12,525962946750047.75,1197468565259348.5,241050583815006.22
71.40274938683986,5.674903276259051e+16,7.740460520084754e+16,1.8175616876764116e+16,12016246086653.43,174243515869415.5,614806111157533.5,1397526193580805.0,281363494798563.25
79.54302432552385,5.974904087888717e+16,8.177444499594709e+16,1.9136438483982304e+16,14110177004844.586,204537590532976.47,716721823368335.8,1626158912386959.8,327437129784484.9
88.49732675807624,6.285288908515087e+16,8.634023911228578e+16,2.0130515480824772e+16,16530073516741.58,239533483625156.7,833513604169027.5,1887210304837355.2,380047080161690.06
98.34705943388387,6.6064244604178616e+16,9.111483403257122e+16,2.1159022169631532e+16,19323747830011.09,279918172896272.88,967222879245426.6,2185030640789561.8,440071817999823.0
109.18176537727226,6.9386512630124056e+16,9.611178383880494e+16,2.2223048922998524e+16,22545691489284.727,326474136981133.6,1120158758528458.6,2524538371286701.0,508505327396738.4
121.09994191499949,7.282280544081328e+16,1.013454386652171e+17,2.3323592293398124e+16,26257938506891.195,380091627570972.0,1294931268272830.8,2911288865812394.5,586471230842719.9
134.20993610649944,7.637590500972243e+16,1.0683103938737634e+17,2.4461543041472412e+16,30531024325350.87,441782297864705.94,1494488359233575.0,3351551091298060.5,675238563459548.9
148.6309297171494,8.00482193292548e+16,1.1258482018399757e+17,2.5637672150838064e+16,35445047468533.805,512694284980866.0,1722157054449516.0,3852392961592809.0,776239355413094.0
164.49402268886433,8.38417326508058e+16,1.1862412064223538e+17,2.6852614895286892e+16,41090840274266.195,594128838198761.6,1981689155054361.0,4421776088386204.0,891088174229050.5
181.94342495775078,8.775795022203682e+16,1.2496750915694835e+17,2.8106853144489092e+16,47571254508658.484,687558578724115.6,2277312299106804.0,5068660134994006.0,1021603523089078.1
201.13776745352587,9.179784520236323e+16,1.3163491949306242e+17,2.9400698371343372e+16,55002570909021.414,794647550683200.0,2613794025355007.0,5803105855723795.0,1169825916684906.0
222.25154419887846,9.596186098163811e+16,1.3864780253473578e+17,3.073429243025939e+16,63516074257648.32,917273902747895.5,2996593070639577.0,6636287190953138.0,1337978884240350.2
245.47669861876633,1.0025706727682365e+17,1.4602929516985597e+17,3.2109902407485884e+16,73265064148534.33,1057660739315448.9,3436988700124481.5,7569337845446405.0,1525073136511586.5
271.024368480643,1.0477915708339517e+17,1.5380440192048858e+17,3.355821416206398e+16,84496245338934.16,1219775601139713.2,3957746639983943.0,8496699586984284.0,1708312601582388.0
294.24952290053085,1.0880311792385507e+17,1.606231239176688e+17,3.4847030090701704e+16,95213356523117.95,1374958170958157.2,4395654733115239.5,9248824426543286.0,1858325215972373.0
319.7971927624075,1.1306852366604986e+17,1.6785939135577248e+17,3.62131960043004e+16,107473555613784.66,1552693926321137.0,4838244201175100.0,1.0058447758817176e+16,2020812243495033.8
347.89962961047183,1.1756070433636763e+17,1.7553953421940163e+17,3.765199555593499e+16,121478330244932.6,1755656300258087.2,5304982314373810.0,1.0945466895841594e+16,2199250486380375.2
378.8123101433426,1.2228103961280315e+17,1.836915788880925e+17,3.916385616744924e+16,137471144013186.47,1987095109548174.2,5807308368204966.0,1.1919374335665038e+16,2395434150408523.0
412.8162587295004,1.2723484694989157e+17,1.9234496921050912e+17,4.075046447557613e+16,155732811580140.03,2250684636158018.8,6352813833120851.0,1.2989244395407164e+16,2611182108775503.5
450.220602174274,1.3242816735312024e+17,2.0153010310088554e+17,4.241373559248676e+16,176583326830069.72,2550500975338304.5,6947898658124798.0,1.4164746832087298e+16,2848470362898279.0
491.36537996352496,1.3786637009811242e+17,2.112776971021253e+17,4.4155366004381704e+16,200385087387773.84,2891026199778347.5,7598707640157726.0,1.5456378352651816e+16,3109463719655355.0
536.6246355317011,1.4355313351455373e+17,2.2161799950336147e+17,4.597650739205369e+16,227546281981724.97,3277157043537918.5,8311522083434838.0,1.6875593913719446e+16,3396539274080041.0
586.4098166566947,1.4948948925360173e+17,2.3257987729491018e+17,4.787746113983211e+16,258523980285106.47,3714212382393707.5,9092963725724906.0,1.843491726194309e+16,3712309551129379.0
641.1735158941877,1.556728584461676e+17,2.4418981227821357e+17,4.9857370567370776e+16,293826585613101.44,4207936855866015.0,9950124056644342.0,2.014804878905044e+16,4059646977501037.0
701.4135850554301,1.620960842773594e+17,2.5647085900429578e+17,5.191391230430759e+16,334015318083319.2,4764498571664224.0,1.0890661316186072e+16,2.2029976846026596e+16,4441710370668326.5
767.6776611327966,1.6874650207919603e+17,2.6944163762420272e+17,5.404299992953423e+16,379704392638137.5,5390479035179184.0,1.1922883201287908e+16,2.4097095119822172e+16,4861973866545057.0
840.5681448178999,1.756051090359824e+17,2.8311545183799917e+17,5.623851970342148e+16,431559567831121.9,6092853744762295.0,1.305582378941848e+16,2.6367327368442492e+16,5324258628141271.0
920.7476768715135,1.826459055899461e+17,2.974996310845149e+17,5.849212140652017e+16,490294775283836.8,6878962394095923.0,1.429931902985165e+16,2.886026022713652e+16,5832767661681175.0
1008.9451621304885,1.8983548111810483e+17,3.125951951556405e+17,6.079308743929242e+16,556666599711144.44,7756468290573663.0,1.5664083159550552e+16,3.1597284471974e+16,6392124076433866.0
1105.962395915361,1.971329093651038e+17,3.2839692961944506e+17,6.3128301054170664e+16,631466468971069.1,8733307344520356.0,1.7161787352356428e+16,3.460174488745809e+16,7007413146864239.0
1212.6813530787208,2.0449000698105197e+17,3.448939444545761e+17,6.548233068960365e+16,715510537872178.2,9817627721451650.0,1.88051412985244e+16,3.789909866040706e+16,7684228565664726.0
1330.0722059584166,2.1185199359248832e+17,3.620707688140139e+17,6.783764258180024e+16,809627414494798.4,1.1017721928587904e+16,2.0607978007473244e+16,4.151708197734346e+16,8428723311826520.0
1459.202144126082,2.1915857527971853e+17,3.799090132399509e+17,7.017494851605785e+16,914644087512238.5,1.2341953723997632e+16,2.2585341819310596e+16,4.548588421490087e+16,9247665598452824.0
1601.2450761105138,2.2634545478722688e+17,3.983896064233655e+17,7.24736896377279e+16,1031370664427211.9,1.3798682816216218e+16,2.4753579342246108e+16,4.983832876514686e+16,1.0148500410374556e+16
1757.492301293389,2.333462496679708e+17,4.1749558460059046e+17,7.471265017233542e+16,1160584808003854.5,1.5396190876663514e+16,2.7130432769196364e+16,5.4610059114468824e+16,1.113941719195144e+16
1929.3642489945514,2.4009477194775898e+17,4.372153752747235e+17,7.68706861005737e+16,1303017028109928.0,1.714261287337115e+16,2.973513474412527e+16,5.9839728279736504e+16,1.2229424301047808e+16
2118.4233914658303,2.4652758881453984e+17,4.575464716336931e+17,7.892754298713237e+16,1459338196008322.2,1.904587801987733e+16,3.258850362788505e+16,6.556918908176296e+16,1.3428430906486576e+16
2326.388448184237,2.525867444213695e+17,4.7849934096635706e+17,8.086472463263854e+16,1630150729305896.8,2.111366448667275e+16,3.571303763723812e+16,7.184368198531131e+16,1.4747337073821804e+16
2555.1500105744844,2.5822248207820883e+17,5.001013543235824e+17,8.266636125627877e+16,1815984773724263.5,2.3353371136754932e+16,3.913300588263368e+16,7.87120163373667e+16,1.619813285861461e+16
2806.7877292037565,2.6339577057787606e+17,5.2240047400703386e+17,8.432001464537438e+16,2017300318374630.5,2.5772107592960196e+16,4.287453379368429e+16,8.622673977055176e+16,1.779400730821252e+16
3083.5892196959558,2.6808041668300726e+17,5.454684011014824e+17,8.581735083621683e+16,2234495491660463.5,2.8376700662139284e+16,4.696567978003111e+16,9.44442892853746e+16,1.9549468363052812e+16
3388.0708592373753,2.7226454662803293e+17,5.6940287861997645e+17,8.715461119281051e+16,2467920316815703.5,3.117371045701047e+16,5.143649921463697e+16,1.0342511606312432e+17,2.148047474754554e+16
3723.0006627329367,2.7595126966316003e+17,5.943288761834356e+17,8.833282238847221e+16,2717894052950878.0,3.416944372204815e+16,5.631909093489282e+16,1.1323377437236139e+17,2.3604581049550304e+16
4091.423446578054,2.7915839879122086e+17,6.203984537892415e+17,8.9357705599298e+16,2984723080184416.0,3.736994558056026e+16,6.164762042858347e+16,1.2393896300207739e+17,2.5941097307316356e+16
4496.688508807683,2.8191719447291296e+17,6.477892120089078e+17,9.023927409423467e+16,3268715338951255.5,4.078094536110922e+16,6.7458312710278376e+16,1.3561350547680302e+17,2.851126455461808e+16
4942.480077260276,2.84270205870454e+17,6.767013721281655e+17,9.09911430706841e+16,3570186858768868.0,4.4407728906144696e+16,7.378940661488139e+16,1.4833425288736093e+17,3.1338447919871096e+16
5432.850802558127,2.8626839474805062e+17,7.073536725928283e+17,9.162961081452107e+16,3889456125242547.5,4.825491047661371e+16,8.068106086824946e+16,1.6218189052555846e+17,3.444834903459324e+16
5972.258600385763,2.8796781965461072e+17,7.399783930069734e+17,9.217259975455717e+16,4226823039880975.0,5.232608330998581e+16,8.817520088176354e+16,1.7724062668405568e+17,3.786923968211991e+16
6565.607177996164,2.8942621363099437e+17,7.74815899367903e+17,9.263856372319757e+16,4582530962753053.0,5.6623339385547944e+16,9.631529380916349e+16,1.9359773904564784e+17,4.163221881059859e+16
7218.290613367604,2.9069979446286016e+17,8.121091260292627e+17,9.304546959039771e+16,4956712547967342.0,6.1146664975376744e+16,1.0514603805571584e+17,2.113429511502344e+17,4.577149524671024e+16
7936.242392276189,2.918405994658887e+17,8.520983645879357e+17,9.340994644624813e+16,5349322399497683.0,6.589323673878927e+16,1.1471295220326315e+17,2.305676086540234e+17,5.032469868022568e+16
8725.989349075633,2.928945456033896e+17,8.950166255706301e+17,9.374666642007304e+16,5760061556532520.0,7.085666024988757e+16,1.2506184728509912e+17,2.5136362270914054e+17,5.533322174650995e+16
9594.71100155502,2.939002990564021e+17,9.410856970247982e+17,9.406798398789838e+16,6188300106384647.0,7.602620584200072e+16,1.3623816561874832e+17,2.7382214609660093e+17,6.084259631676367e+16
10550.304819282346,2.9488892015910374e+17,9.905128749378285e+17,9.438382288352086e+16,6633004646618078.0,8.138610354720859e+16,1.4828616914473302e+17,2.980319471399319e+17,6.690290741671208e+16
11601.458018782405,2.958841528122517e+17,1.0434882146880858e+18,9.47017688165996e+16,7092676937644859.0,8.691495950249771e+16,1.6124796066462397e+17,3.240774474180325e+17,7.356924853643469e+16
12757.72653823247,2.969031681028696e+17,1.1001820742977412e+18,9.5027307231821e+16,7565309164288595.0,9.258535196766038e+16,1.7516232284983235e+17,3.5203639251105837e+17,8.090222247021027e+16
14029.621909627542,2.979575554506963e+17,1.1607427003402145e+18,9.536414009817262e+16,8048360115199849.0,9.836365841985595e+16,1.900633628153803e+17,3.8197713120186086e+17,8.896849223904794e+16
15428.706818162122,2.9905437614674054e+17,1.2252936430558979e+18,9.571452259583627e+16,8538755601791024.0,1.0421015813135126e+17,2.0597895489603658e+17,4.13955488580377e+17,9.784138710376446e+16
16967.70021755016,3.0019714099862125e+17,1.2939308642204974e+18,9.607957553179336e+16,9032915717538764.0,1.1007944795372606e+17,2.229289815348403e+17,4.480112333067908e+17,1.0760156917718693e+17
18660.592956877,3.013866303822301e+17,1.3667194994486085e+18,9.645954739036272e+16,9526811010404798.0,1.1592120171184795e+17,2.4092338240012896e+17,4.8416415985877664e+17,1.183377666948576e+17
20522.774970136525,3.0262152747268314e+17,1.4436903362790515e+18,9.68540166873686e+16,1.0016049045783042e+16,1.2168129319002643e+17,2.5996003543865878e+17,5.224098338350439e+17,1.3014758060948661e+17
22571.175184722004,3.038988747690059e+17,1.5248361563967572e+18,9.726203786391376e+16,1.0495991828131596e+16,1.2730328617840429e+17,2.800225108870911e+17,5.6271508302936723e+17,1.4313837184084424e+17
24824.41542076603,3.0521438696561664e+17,1.6101081582155277e+18,9.768224128260222e+16,1.0961902822682746e+16,1.3273027010856795e+17,3.010777604390588e+17,6.050133593511672e+17,1.5742823724582976e+17
27302.979680414457,3.065626612591013e+17,1.6994127255307658e+18,9.811290045461683e+16,1.1409119732239228e+16,1.3790698586158042e+17,3.230738286178555e+17,6.492001464255882e+17,1.7314708317978336e+17
30029.40036602773,3.079373235734962e+17,1.7926088447267817e+18,9.855197879234989e+16,1.1833245835618156e+16,1.4278214527276514e+17,3.4593770128003226e+17,6.951286435655027e+17,1.9043780640701472e+17
33028.46312020233,3.093311409044238e+17,1.8895065046854318e+18,9.899716553503061e+16,1.2230348947222742e+16,1.4731080429649485e+17,3.6957343576320115e+17,7.426060161449923e+17,2.0945759309406544e+17
36327.43214979439,3.1073612023108794e+17,1.9898664468161405e+18,9.9445907378865e+16,1.2597153515105326e+16,1.5145661077598963e+17,3.938607463381737e+17,7.913905608846408e+17,2.303793476922791e+17
39956.29808234565,3.1214360603684576e+17,2.0934016711154583e+18,9.989543965668558e+16,1.2931208806421878e+16,1.551937219359822e+17,4.1865424416769286e+17,8.411901858153001e+17,2.5339326469653136e+17
43948.05060815204,3.1354438282267904e+17,2.1997811465546936e+18,1.0034281910503862e+17,1.323101534425005e+16,1.5850818293289718e+17,4.437835486462881e+17,8.916626401383213e+17,2.7870855756522058e+17
48338.97838653908,3.1492878641151456e+17,2.30863621263397e+18,1.0078495943039418e+17,1.3496093440128868e+16,1.613985831954934e+17,4.6905449148216026e+17,9.424179381596739e+17,3.0655536051460205e+17
53168.99894276482,3.1628682789952454e+17,2.419570178305168e+18,1.0121867090474318e+17,1.3726982167879588e+16,1.6387586507247562e+17,4.9425162008815424e+17,9.930233917011743e+17,3.371868204712135e+17
58482.02155461313,3.176083358929547e+17,2.5321716016104986e+18,1.0164070579015696e+17,1.3925164287408944e+16,1.6596224669669238e+17,5.191421664861497e+17,1.0430115842633819e+18,3.708813981937538e+17
64326.34642764628,3.188831249169525e+17,2.646031639366277e+18,1.020478121098247e+17,1.4092921661534046e+16,1.676893280475081e+17,5.434815764808318e+17,1.0918914766736127e+18,4.079453994760121e+17
70755.10378798273,3.201011991464287e+17,2.760765660986543e+18,1.02436798686711e+17,1.4233135212549352e+16,1.6909555929507462e+17,5.670205879526993e+17,1.1391626212605976e+18,4.48715759432482e+17
77826.73688435284,3.2125299947197306e+17,2.876039001100353e+18,1.0280461400811382e+17,1.434905163160499e+16,1.7022334281215776e+17,5.895137072412061e+17,1.1843321807681777e+18,4.935631051671189e+17
85605.53329035995,3.223296973216235e+17,2.991596276926466e+18,1.0314844000847237e+17,1.4444044059576354e+16,1.7111609425412502e+17,6.107287649211767e+17,1.226934111707362e+18,5.428951246541249e+17
94162.20933696778,3.2332353030179654e+17,3.1072931426688993e+18,1.0346579919492606e+17,1.4521394456822626e+16,1.7181558928608294e+17,6.304570502847612e+17,1.2665495067039708e+18,5.971602724405399e+17
103574.55298823639,3.2422816334930624e+17,3.223128756132376e+18,1.037546699103363e+17,1.4584120958812782e+16,1.723598672711844e+17,6.485233490260773e+17,1.3028267397777475e+18,6.568518458389124e+17
113928.13100463187,3.2503904661718054e+17,3.33927669192953e+18,1.0401360054845592e+17,1.4634864943825788e+16,1.7278186135349734e+17,6.647950697474033e+17,1.3354997800769254e+18,7.225124686422426e+17
125317.0668226669,3.257537306030676e+17,3.4561116779346924e+18,1.0424181011632554e+17,1.467584167148561e+16,1.731087976902908e+17,6.791895750448143e+17,1.3644028997158387e+18,7.947390230928723e+17
137844.89622250543,3.263720932740357e+17,3.574229488026652e+18,1.0443926070227413e+17,1.4708847661669586e+16,1.733622834039592e+17,6.916788640298732e+17,1.3894800640490253e+18,8.741880749058135e+17
151625.5085623278,3.2689643585376154e+17,3.6944576967964785e+18,1.0460668801839546e+17,1.4735309860808502e+16,1.7355890983824346e+17,7.022909083163786e+17,1.41078760428721e+18,9.615818406216759e+17
166784.1821361324,3.273314148457924e+17,3.8178558282191877e+18,1.0474557966796942e+17,1.4756357680758824e+16,1.737111522286606e+17,7.111072283241636e+17,1.4284893439864381e+18,1.0577147514854026e+18
183458.7230673175,3.2768379724699283e+17,3.945704651563259e+18,1.0485809697432078e+17,1.4772899561352232e+16,1.7382835232564106e+17,7.182566915699978e+17,1.442844143192101e+18,1.163460670692855e+18
201800.7180916211,3.2796204908747494e+17,4.079485863044678e+18,1.0494694360612384e+17,1.4785689841372052e+16,1.739176157679956e+17,7.239059732485783e+17,1.4541867443819668e+18,1.2797808471111657e+18
