t(s),Total solute volume 1,Total retention volume 1,Total 1 volume 1,Total 2 volume 1,Total 3 volume 1,Total 4 volume 1,Total 5 volume 1,Total 6 volume 1
1.0,2608533823723230.5,2612274703608691.0,3740879885460.3955,0.0,0.0,0.0,0.0,0.0
2.1,3999057395916677.0,4021775986248650.5,5735019653608.537,2737704020.494843,13456928200.344269,273623903557.8537,5710599371197.943,10983152771390.545
3.3100000000000005,5109829034051437.0,5162679990393390.0,7327969207067.657,7344354267.636108,36100473340.13733,734118039798.5442,15319097098834.998,29426327168621.08
4.641000000000001,6094614827415346.0,6188885136812440.0,8740243385605.752,13803564159.450369,67850090803.949196,1379927640439.5984,28793287637613.58,55275197078489.414
6.105100000000002,7010276607359897.0,7158218476296535.0,10053387325182.514,22255720122.240604,109395838314.39351,2225187154513.0293,46428273917053.94,89103368981453.66
7.7156100000000025,7884898255514137.0,8100172357444209.0,11307675914771.451,32919222170.66314,161811241497.63394,3291858888902.3955,68682409463355.78,131797427199358.58
9.487171000000004,8734664710368495.0,9032690508161566.0,12526319856344.197,46071203049.16013,226458521122.63763,4607816749648.735,96137371356642.22,184481760106290.75
11.435888100000005,9569832511814314.0,9968119977989946.0,13724027978940.105,62042848657.09791,304965591348.1857,6206391157160.967,129488690552613.12,248501348046875.28
13.579476910000007,1.0397313658625292e+16,1.0915804308551746e+16,14910712729650.36,81220024281.93893,399229138064.138,8126447110136.362,169547389869136.0,325425651055186.44
15.937424601000009,1.1221950731248798e+16,1.1883381472035548e+16,16093318817753.441,104046398847.4548,511429975879.628,10412715623106.83,217246889211333.25,417062340759842.3
18.53116706110001,1.2047206540362136e+16,1.2877504055537462e+16,17276812234478.918,131028007193.02686,644055473422.9789,13116273494726.854,273652972023260.62,525476373942261.4
21.384283767210015,1.2875562193158878e+16,1.390427265136793e+16,18464751116708.277,162738773402.96243,799926702264.3959,16295124771494.22,339975818173841.2,653012098671333.5
24.522712143931017,1.3708756650203238e+16,1.4969513671504932e+16,19659629293412.965,199826726414.57315,982228988198.6111,20014858297458.69,417583545699969.1,802316932296265.8
27.97498335832412,1.4547932541738862e+16,1.6078964956712156e+16,20863085399471.098,243020692071.5072,1194544803878.8718,24349361326037.85,508016826982642.44,976365575769228.9
31.772481694156536,1.5393721186855476e+16,1.7238400901018592e+16,22076024800826.902,293137215751.4476,1440887794242.1877,29381566530844.23,613004104184411.2,1178483993637062.2
35.949729863572195,1.624628432987663e+16,1.845371335908942e+16,23298679448279.246,351087390562.8354,1725736337312.5906,35204202247647.83,734476790970192.4,1412372532818806.0
40.544702849929415,1.7105323164942602e+16,1.973095748087503e+16,24530620819698.594,417883167580.7161,2054064558804.8335,41920506343262.57,874583669137678.5,1682127571905383.0
45.59917313492236,1.7970063163572146e+16,2.1076369331903156e+16,25770738161670.64,494642641331.72296,2431368309788.479,49644856173089.16,1035703537024650.0,1992261026020445.2
51.1590904484146,1.8839223895366996e+16,2.249636272766049e+16,27017195210082.797,582593772164.1738,2863683461519.003,58503264285193.34,1220455114352505.0,2347716981211969.0
57.27499949325607,1.9710984733949972e+16,2.3997514619719508e+16,28267381009865.61,683076056265.743,3357594113010.897,68633694767191.78,1431703315551757.5,2753884824271437.5
64.00249944258168,2.0582958635490176e+16,2.5586550311604772e+16,29517872311612.715,797539796073.5541,3920229004773.256,80186169664481.42,1672561297763483.0,3216608567574237.5
71.40274938683986,2.1452186044986576e+16,2.72703407406044e+16,30764424833236.246,927542849017.4446,4559245538967.569,93322657816621.95,1946388153786928.0,3742192670793004.5
79.54302432552385,2.231515898368926e+16,2.905592347605223e+16,32002007804073.285,1074745011372.8694,5282802176729.366,108216766873339.42,2256782696318652.5,4337405474178787.5
88.49732675807624,2.3167881668318372e+16,3.0950556912695668e+16,33224890898831.15,1240900484754.7866,6099521412460.814,125053289060470.5,2607574384300645.0,5009482258220156.0
98.34705943388387,2.400596925114857e+16,3.296181378130725e+16,34426785840212.32,1427849132028.1843,7018446799083.319,144027678191526.03,3002812987149117.5,5766130783046673.0
109.18176537727226,2.482478131519454e+16,3.5097716216123664e+16,35601037843394.88,1637507421213.274,8048998440927.64,165345555927227.56,3446758995096727.0,6615542806199631.0
121.09994191499949,2.5619582435262384e+16,3.736691090189671e+16,36740855875299.86,1871860057096.6157,9200931867967.33,189222357101382.8,3943877017014983.0,7566415444717601.0
134.20993610649944,2.638571901284927e+16,3.977887981432392e+16,37839566251913.08,2132953300679.8218,10484305207104.84,215883226096098.47,4498834441565264.5,8627986309053599.0
148.6309297171494,2.7118799982922936e+16,4.2344180060968376e+16,38890871788121.125,2422890876446.463,11909459073901.629,245563268810661.94,5116507475408585.0,9810086112087688.0
164.49402268886433,2.781486885254681e+16,4.507470536814686e+16,39889098516531.21,2743833172916.783,13487012652046.617,278508248364048.84,5801996328078385.0,1.1123211994816176e+16
181.94342495775078,2.847055564187736e+16,4.7983961698447304e+16,40829413584386.98,3098000162441.172,15227878053953.885,314975788222602.2,6560650807415398.0,1.2578624169131242e+16
201.13776745352587,2.908319933959909e+16,5.1087350087814616e+16,41708000865460.2,3487678113651.4146,17143293323140.33,355237115093406.0,7398106946639350.0,1.4188467714180518e+16
222.25154419887846,2.9650934130770684e+16,5.4402450821320104e+16,42522184618262.945,3915229760757.064,19244872427632.355,399579337185694.75,8320334535484414.0,1.5965920531072806e+16
245.47669861876633,3.017273561441401e+16,5.794930433560777e+16,43270495765917.83,4383107150893.6763,21544668416393.043,448308213431158.94,9333694615942496.0,1.7925367620486816e+16
271.024368480643,3.0648426253143748e+16,6.175068562441352e+16,43952679711095.125,4893865944574.011,24055243717913.027,501751328778619.8,1.0445005184023564e+16,2.0082601069093996e+16
299.1268053287073,3.1078642170430308e+16,6.583237036497124e+16,44569648719990.45,5450179531343.231,26789739530457.89,560261553066926.0,1.1661612578642958e+16,2.2455044495049044e+16
330.03948586157804,3.146476593388778e+16,7.0223392434046904e+16,45123385527223.07,6054850980375.874,29761934570746.93,624220629601231.0,1.2991465404174258e+16,2.506200029530524e+16
364.0434344477359,3.180883195604534e+16,7.495629389520352e+16,45616807671781.766,6710820605738.586,32986282268139.99,694042717158410.0,1.4443187378915366e+16,2.7924917932538644e+16
401.44777789250946,3.2113412464383348e+16,8.006736984830854e+16,46053603967587.17,7421166808204.796,36477914912183.43,770177697202833.1,1.602614525699455e+16,3.106768174403986e+16
442.5925556817604,3.2381492557242704e+16,8.559691165753987e+16,46438055322258.2,8189097863870.725,40252603302386.24,853114056388948.0,1.7750507931640538e+16,3.4516917355779076e+16
487.8518112499365,3.2616342669090816e+16,9.158945293314957e+16,46774851840703.5,9017932452610.197,44326661052491.0,943381161007635.4,1.9627292953958868e+16,3.830231670374643e+16
537.6369923749302,3.2821395901169756e+16,9.809402316993648e+16,47068916906145.48,9911066933078.596,48716783751562.555,1041550751547181.1,2.1668396925980812e+16,4.245698282364797e+16
592.4006916124232,3.3000136289424092e+16,1.0516441410861861e+17,47325246946219.82,10871927647242.326,53439814541898.36,1148237497879361.8,2.3886606467036784e+16,4.701779686514301e+16
652.6407607736655,3.3156002385258564e+16,1.128594636914794e+17,47548773159075.41,11903906851445.812,58512429217054.68,1264098464653963.2,2.6295586625850456e+16,5.202581110648881e+16
718.9048368510321,3.3292308732551204e+16,1.2124336197529274e+17,47744248904337.32,13010281208891.436,63950735603659.41,1389831338931960.8,2.890984364922791e+16,5.752667298886485e+16
791.7953205361354,3.3412186131456092e+16,1.3038598261723722e+17,47916164036032.16,14194112142161.719,69769783778283.32,1526171265812642.2,3.1744658879380916e+16,6.35710862806311e+16
871.9748525897489,3.351854013460332e+16,1.4036324265627466e+17,48068685382423.72,15458127754106.242,75982985684009.3,1673886122255966.2,3.4815990224555416e+16,7.021531637603951e+16
960.1723378487239,3.361402611440392e+16,1.5125749237300707e+17,48205620990314.81,16804586517866.396,82601445131447.94,1833770035486323.8,3.814033715265191e+16,7.75217474178254e+16
1057.1895716335964,3.3701038502591732e+16,1.6315793612276163e+17,48330404693616.28,18235123561617.844,89633202239588.06,2006634922750201.5,4.173456454551673e+16,8.555949942140774e+16
1163.9085287969563,3.3781711416930148e+16,1.7616108429006506e+17,48446097012139.99,19750581187033.21,97082400369589.72,2193299797489773.2,4.561568009876878e+16,9.440511389830752e+16
1281.299381676652,3.3857927802831244e+16,1.9037123599087168e+17,48555398261543.51,21350826317641.88,104948388800474.5,2394577557940240.5,4.980055935653397e+16,1.0414331666018634e+17
1410.4293198443174,3.3931334358824944e+16,2.0590099193142064e+17,48660669957837.04,23034558919072.0,113224781010288.83,2611258953451360.0,5.4305612050070376e+16,1.1486786655918658e+17
1552.4722518287492,3.400335980963895e+16,2.2287179700138138e+17,48763961022661.9,24799117091584.55,121898496577672.34,2844093418085391.5,5.914638330109831e+16,1.2668249889786666e+17
1708.7194770116243,3.4075234470800976e+16,2.41414512825861e+17,48867035840727.195,26640286497251.176,130948824362265.86,3093766477852467.5,6.433708361247308e+16,1.3970197211803358e+17
1880.5914247127869,3.4148009458700276e+16,2.616700217347928e+17,48971401808798.875,28552123993517.84,140346555482539.16,3360873485986537.0,6.989004258087773e+16,1.5405322612794352e+17
2069.6505671840655,3.4222574299912332e+16,2.8378986556053914e+17,49078334589083.21,30526807683673.098,150053246106328.53,3645889529734121.5,7.58150831318695e+16,1.6987666021064365e+17
2277.615623902472,3.4299672058587876e+16,3.0793692550129146e+17,49188899803287.72,32554527868047.42,160020681245007.28,3949135493016891.0,8.21188160208462e+16,1.8732753781992378e+17
2506.3771862927197,3.437991141936199e+16,3.342861531676778e+17,49303970360618.625,34623435304026.594,170190620203120.1,4270740463417167.0,8.880385860007096e+16,2.0657752465895974e+17
2758.0149049219917,3.4463775434553804e+16,3.630253680547873e+17,49424239002066.56,36719664381146.42,180494910228429.12,4610600950338624.0,9.58679876515671e+16,2.278163652047166e+17
3034.816395414191,3.455162687472609e+16,3.9435614323983155e+17,49550225973600.35,38827448827635.3,190856054961797.34,4968337743283429.0,1.0330324362125411e+17,2.5125370127080554e+17
3339.2980349556105,3.4643710321773892e+16,4.284948092520877e+17,49682282027851.43,40929345868703.14,201188315955528.75,5343251690325697.0,1.1109501296981659e+17,2.771210343263194e+17
3674.227838451172,3.4740151326304664e+16,4.656736158773142e+17,49820587215723.53,43006580837492.0,211399406270405.62,5734280215177483.0,1.1922112653795642e+17,3.0567383122355136e+17
4042.6506222962894,3.4840953128488556e+16,5.061421030918532e+17,49965146183800.09,45039517671639.73,221392802884729.9,6139957003410048.0,1.2765102452655621e+17,3.3719377096665805e+17
4447.915684525919,3.49459916236675e+16,5.501687451159847e+17,50115780954573.1,47008251304149.12,231070658331197.88,6558377944494562.0,1.3634505228947269e+17,3.7199112856776064e+17
4893.707252978511,3.505500944609334e+16,5.980429451865938e+17,50272122441992.78,48893305838780.44,240337232414579.62,6987177064279630.0,1.452539645415673e+17,4.1040729147395885e+17
5384.077978276362,3.5167610244804508e+16,6.500774721542708e+17,50433602242561.77,50676408276030.48,249102695437733.84,7423516742930754.0,1.5431872714442906e+17,4.528174053161498e+17
5923.485776103998,3.5283254424390056e+16,7.066114420378627e+17,50599446527210.09,52341292763315.53,257287081647330.03,7864096876377948.0,1.6347071306494864e+17,4.9963314985120966e+17
6516.834353714399,3.540125779877732e+16,7.680139563649179e+17,50768674110715.75,53874476901392.516,264824105527290.1,8305187665835153.0,1.7263238952200614e+17,5.5130565412176186e+17
7169.5177890858395,3.552079472442287e+16,8.34688512194554e+17,50940100944994.45,55265942129086.56,271664506802235.6,8742690250043155.0,1.817185834333314e+17,6.083285732368813e+17
7887.469567994424,3.5640907294745216e+16,9.07078293593052e+17,51112353304763.39,56509647444363.27,277778576399487.72,9172228266788604.0,1.9063838870737075e+17,6.712413687470002e+17
8677.216524793868,3.5760522036215744e+16,9.856724385071468e+17,51283891731262.875,57603812195021.87,283157547415165.56,9589271512404924.0,1.9929773898861642e+17,7.406328607185691e+17
9545.938177273256,3.587847519334722e+16,1.0710133465449426e+18,51453047293239.234,58550920828312.53,287813619428335.44,9989290104373944.0,2.0760261202908477e+17,8.171451516305865e+17
10501.531995000581,3.5993547082054308e+16,1.163705051528442e+18,51618070852792.125,59357429952559.62,291778519480246.44,1.0367934016997622e+16,2.1546275849700496e+17,9.014780579120984e+17
11552.68519450064,3.610450511524414e+16,1.2644226293508646e+18,51777194767986.91,60033193091518.1,295100675203314.9,1.0721228811177686e+16,2.2279576412367446e+17,9.943942202377062e+17
12708.953713950705,3.6210153997136584e+16,1.373922551053991e+18,51928704876072.984,60590655926213.23,297841259502905.56,1.1045774292424242e+16,2.2953116951640717e+17,1.0967250926277188e+18
13980.849085345777,3.630939034588578e+16,1.493053830803298e+18,52071018827283.05,61043907675354.83,300069527733041.3,1.1338929392293452e+16,2.356143009508044e+17,1.2093780256600794e+18
15379.933993880357,3.640125781168509e+16,1.622769769243365e+18,52202765129198.445,61407695301833.22,301857971764066.5,1.159896460075929e+16,2.4100942503738275e+17,1.333344653361346e+18
16918.927393268394,3.6484997842312936e+16,1.764140066982612e+18,52322855949144.23,61696510848094.89,303277833174002.94,1.1825163591044624e+16,2.4570184708229194e+17,1.4697107612669885e+18
18611.820132595236,3.656009086277787e+16,1.9183630925661676e+18,52430546169531.29,61923846395596.484,304395440151961.1,1.2017858856368624e+16,2.496986392253069e+17,1.6196677537889997e+18
20474.00214585476,3.662628299189076e+16,2.0867781424910464e+18,52525471701835.13,62101678656454.1,305269673052031.4,1.2178392336639228e+16,2.5302781238672522e+17,1.7845257579523814e+18
22522.40236044024,3.668359461445914e+16,2.27087762896622e+18,52607661779891.06,62240203249631.83,305950657313079.4,1.2309000619385406e+16,2.5573592458704736e+17,1.9657283106229857e+18
24775.642596484264,3.673230908828127e+16,2.4723192663988506e+18,52677522764688.39,62347797104614.43,306479577907140.6,1.2412634125990836e+16,2.5788432186139213e+17,2.1648684964254085e+18
27254.206856132692,3.677294232000165e+16,2.692938482675571e+18,52735794513375.945,62431155654259.234,306889353210999.3,1.2492728979936722e+16,2.5954440027636653e+17,2.3837063547958897e+18
29980.627541745966,3.680619646345304e+16,2.934761431835526e+18,52783483978475.49,62495535731606.914,307205828732938.94,1.2552957071691154e+16,2.6079241858107872e+17,2.624187374870862e+18
32979.69029592056,3.683290308250779e+16,3.200019104376879e+18,52821783698244.164,62545036537019.0,307449158208580.25,1.2596982595637872e+16,2.61704447896805e+17,2.8884619548234906e+18
36278.65932551262,3.685396234407346e+16,3.491163098545169e+18,52851984593906.95,62582865936048.41,307635112756298.56,1.2628251271440676e+16,2.6235200173572826e+17,3.178905813230634e+18
39907.525258063884,3.6870284916918584e+16,3.8108836197011564e+18,52875392647295.59,62611560883630.6,307776164627654.9,1.2649831926992682e+16,2.627987538668048e+17,3.498141485872275e+18
43899.277783870275,3.688274225810859e+16,4.162130218854364e+18,52893257607082.79,62633151814392.57,307882295540571.8,1.2664320556496808e+16,2.6309855307754845e+17,3.849061194257243e+18
48290.20556225731,3.689212913601517e+16,4.548135683170256e+18,52906719243374.83,62649276281010.414,307961555510723.6,1.2673806540618146e+16,2.632947276210436e+17,4.2348515023215355e+18
53120.22611848305,3.689914000793358e+16,4.972443377394097e+18,52916773471070.9,62661254988585.72,308020436786727.56,1.2679891701987008e+16,2.6342048527752064e+17,4.659020261941406e+18
58433.24873033136,3.6904358729591704e+16,5.438938234081632e+18,52924257592365.64,62670144535585.25,308064133229255.7,1.268374700974548e+16,2.6350009358754246e+17,5.125426376219395e+18
64277.57360336451,3.690825942647301e+16,5.951881524743494e+18,52929851546305.44,62676778131956.88,308096740543479.94,1.2686189795015774e+16,2.6355048452961437e+17,5.63831288762218e+18
70706.33096370097,3.691121542767546e+16,6.515949524767612e+18,52934090720756.47,62681801056810.96,308121415231036.4,1.2687765956982888e+16,2.6358296166814698e+17,6.202343844407804e+18
77777.96406007107,3.691351296916676e+16,7.136276211221024e+18,52937385604118.58,62685702676348.336,308140593544027.06,1.2688825655577612e+16,2.6360477126247306e+17,6.822645337651976e+18
85556.76046607818,3.691536676441527e+16,7.818500193453367e+18,52940044115025.44,62688850738636.71,308156067764546.1,1.2689585890957424e+16,2.63620400649665e+17,7.504851055185724e+18
94113.436512686,3.6916935267769656e+16,8.568816157037957e+18,52942293491417.61,62691514326341.49,308169160561798.8,1.2690177822832116e+16,2.636325596093759e+17,8.255152681369612e+18
103525.78016395462,3.691833427906153e+16,9.394031187270588e+18,52944299800781.79,62693890087441.0,308180838554073.0,1.2690679866077898e+16,2.6364286642979472e+17,9.080355487667222e+18
113879.3581803501,3.691964826291609e+16,1.0301626419766082e+19,52946184173068.72,62696121457357.75,308191806794644.4,1.2691139290671664e+16,2.636522954300192e+17,9.987939502670041e+18
125268.29399838512,3.692093928867963e+16,1.1299824538240567e+19,52948035621364.11,62698313840488.75,308202583396214.9,1.2691585496363088e+16,2.636614518098188e+17,1.0986126712712843e+19
137796.12339822366,3.69222538196224e+16,1.2397663703331693e+19,52949920778221.2,62700546139436.85,308213556202559.0,1.2692036775983126e+16,2.6367073242892874e+17,1.208395481628405e+19
151576.73573804603,3.692362772216139e+16,1.3605078554928374e+19,52951891079342.39,62702879261529.7,308225024602111.7,1.2692508437475672e+16,2.636804102466756e+17,1.3291358128727132e+19
166735.40931185064,3.6925089847095976e+16,1.4932988997345765e+19,52953987899396.68,62705362200372.86,308237229421690.5,1.2693010385419722e+16,2.6369070943255366e+17,1.4619256291101164e+19
183409.95024303574,3.692666468464718e+16,1.6393397500960731e+19,52956246359587.27,62708036544561.95,308250375088959.06,1.269355102736799e+16,2.6370180250641914e+17,1.6079651568084283e+19
201751.94526733932,3.69283741637059e+16,1.7999495768585114e+19,52958697907936.8,62710939533113.35,308264644651326.56,1.2694137891539772e+16,2.6371384394020067e+17,1.7685735478307582e+19
221928.13979407327,3.69302389800251e+16,1.9765781637243056e+19,52961372224036.42,62714106310965.0,308280210862796.8,1.2694778082795988e+16,2.637269795149865e+17,1.945200568497586e+19
244121.9537734806,3.693227955745813e+16,2.1708187175769256e+19,52964298597548.11,62717571561321.37,308297244207725.4,1.2695478612636462e+16,2.6374135309279856e+17,2.139439408539197e+19
268535.1491508287,3.693451676196665e+16,2.3844219012307407e+19,52967506952157.15,62721370718162.57,308315918860875.25,1.2696246644321132e+16,2.637571116465015e+17,2.3530407132458107e+19
295389.6640659116,3.693697245111389e+16,2.6193112006901494e+19,52971028633596.23,62725540899378.516,308336417274213.9,1.2697089681512096e+16,2.6377440913057005e+17,2.5879279502651494e+19
324929.6304725028,3.693966991657574e+16,2.8775997470244876e+19,52974897044244.82,62730121658227.4,308358933870683.6,1.2698015720186998e+16,2.6379340959802125e+17,2.846214231105752e+19
357423.5935197531,3.694263425982695e+16,3.1616087219602952e+19,52979148181899.52,62735155621316.34,308383678180185.9,1.2699033377611192e+16,2.6381428984644157e+17,3.130220716413711e+19
