t(s),Total solute volume 1,Total retention volume 1,Total 1 volume 1,Total 2 volume 1,Total 3 volume 1,Total 4 volume 1,Total 5 volume 1,Total 6 volume 1
1.0,4593571579581378.0,4748504621503515.0,154933041922132.72,0.0,0.0,0.0,0.0,0.0
2.1,7059594064259983.0,7297771175087466.0,238106859581764.53,17952078.23953599,201055525.2248531,7947187907.963968,49674066232.754524,12410983959.246006
3.3100000000000005,9044853616050054.0,9350106267796956.0,305065551103462.4,48296585.91472936,540838080.9006516,21194336135.385212,131752135023.13916,33565037628.009308
4.641000000000001,1.0819944711220158e+16,1.1185231100741998e+16,364935727417199.2,91055560.48125699,1019598647.6067237,39760545921.05176,246114219986.43655,63676684494.35094
6.105100000000002,1.2485838175016826e+16,1.2907526455034832e+16,421122912659692.5,147311589.50672218,1649461630.4165697,64124808058.75906,395703294587.2611,103742482467.40187
7.7156100000000025,1.4093310586111364e+16,1.4569488007303844e+16,475339689085766.8,218707362.10429388,2448820037.942692,95002299706.98984,584906580133.0386,155155699454.84003
9.487171000000004,1.5672538653924346e+16,1.6202318465312744e+16,528603851241905.7,307335239.87165445,3441100293.7534175,133299696217.41644,819267960392.2017,219644054337.562
11.435888100000005,1.7243577605194662e+16,1.7826759348483656e+16,581591818588427.0,415725477.5222569,4654630833.342461,180111570116.05,1105468279614.7832,299274494527.7064
13.579476910000007,1.882090839440019e+16,1.9457791686911216e+16,634792002735434.2,546873501.4170336,6122947711.378651,236732954246.26917,1451404029708.1387,396482970364.25836
15.937424601000009,2.0415694672444604e+16,2.1106969312728744e+16,688580929962378.5,704289036.0826707,7885344702.012246,304681073381.57983,1866320889910.7407,514118724666.8937
18.53116706110001,2.2037016408391224e+16,2.278369434862299e+16,743264848540549.1,892061450.6154577,9987604941.706295,385723999352.11707,2360988572727.413,655499452745.9755
21.384283767210015,2.369259545863772e+16,2.449596755697018e+16,799104200578997.5,1114939776.1719553,12482896799.111328,481915652516.04333,2947912726906.9136,824471537540.2119
24.522712143931017,2.538924795147474e+16,2.6250856303786136e+16,856328879961601.0,1378427613.0737524,15432836428.736622,595637297195.3861,3641579784511.749,1025444004030.5579
27.97498335832412,2.713318040686277e+16,2.805480083990779e+16,915148219818686.9,1688894093.5553753,18908730065.186302,729646057107.1072,4458716140819.38,1263253404282.6006
31.772481694156536,2.8930192307563496e+16,2.9913823209734464e+16,975757824806331.9,2053702719.2769253,22993016416.332603,887131186458.2264,5418492317129.482,1542407141894.9546
35.949729863572195,3.078582114055879e+16,3.1833675033950096e+16,1038344463025246.8,2481360466.0105004,27780935905.309868,1071778861552.5383,6542481461809.92,1864907746261.4133
40.544702849929415,3.2705450789643544e+16,3.381994556172579e+16,1103089721826021.5,2981690033.915001,33382458870.666492,1287845864525.2664,7853986447390.365,2226853795376.288
45.59917313492236,3.4694392579862056e+16,3.587814308858487e+16,1170172741146583.8,3566028284.9269347,39924506450.02982,1540241226004.6094,9376229369571.822,2617806445860.173
51.1590904484146,3.675794245919792e+16,3.801375791422352e+16,1239772141866108.8,4247453990.621068,47553498407.73956,1834612631238.966,11129257714703.08,3027641861064.176
57.27499949325607,3.890142377166608e+16,4.023231181277056e+16,1312067467969119.8,5041049145.490797,56438274329.442635,2177432160622.4858,13126578104262.494,3455083546995.3296
64.00249944258168,4.113022627330113e+16,4.2539396520545944e+16,1387240501694623.2,5964199419.687798,66773448653.811935,2576073715165.923,15373726768113.885,3907207418917.325
71.40274938683986,4.3449836722679496e+16,4.4940701331103304e+16,1465476294124403.8,7036938543.744974,78783250197.09247,3038871843088.1865,17870495521602.9,4393126746113.5015
79.54302432552385,4.586585057804333e+16,4.744202702599364e+16,1546963558100105.8,8282340377.803595,92725884120.64285,3575151910010.8047,20616064205173.72,4920665510391.958
88.49732675807624,4.838396092720906e+16,5.004927979145202e+16,1631894292865939.5,9726962560.994432,108898455228.5003,4195227045588.8735,23614236101405.664,5496482812147.945
98.34705943388387,5.1009919401944984e+16,5.276843457499967e+16,1720462463581840.0,11401344571.192135,127642479368.36635,4910365922243.456,26876451423152.074,6126848303472.108
109.18176537727226,5.374945600921063e+16,5.560545313534147e+16,1812861295213100.5,13340559554.784222,149349971303.26117,5732744267062.935,30422283280197.66,6818112839556.459
121.09994191499949,5.660813953342612e+16,5.856613898225819e+16,1909278562346099.0,15584813822.982874,174470037527.40573,6675399333983.767,34278477731517.28,7576954569039.331
134.20993610649944,5.959115963119361e+16,6.165591096475737e+16,2009889238535902.0,18180080705.252438,203515823919.4082,7752207762424.064,38477659325612.766,8410532035206.01
148.6309297171494,6.270301573811139e+16,6.487948080074802e+16,2114845003613321.0,21178746746.18356,237071573430.04587,8977902377975.197,43057306516147.85,9326599809057.965
164.49402268886433,6.59471063014527e+16,6.824042803052947e+16,2224260390413622.2,24640238680.664192,275799445227.569,10368134103869.4,48059156238051.02,10333608637119.04
181.94342495775078,6.932522408060863e+16,7.174067828249427e+16,2338195764701077.0,28631590287.96638,320445645542.2171,11939574573693.596,53528984961398.78,11440800413652.137
201.13776745352587,7.283697779046965e+16,7.53799056963774e+16,2456637822111817.0,33227900373.247375,371845335867.7157,13710046755097.785,59516660173677.65,12658303630948.191
222.25154419887846,7.647917480211053e+16,7.915489528265893e+16,2579478772823821.0,38512627932.29931,430925729342.0896,15698667111181.482,66076369444356.836,13997232811849.27
245.47669861876633,8.024521129778486e+16,8.305891310205976e+16,2706495778605023.0,44577668872.77668,498706770624.7183,17925983861102.1,73266963013266.12,15469794355885.787
271.024368480643,8.412452306613565e+16,8.708113919617205e+16,2837332435807315.5,51523160929.18335,576298823320.9425,20414100513918.965,81152371049507.83,17089400681421.072
299.1268053287073,8.810215103757371e+16,9.120621916856957e+16,2971484128667306.5,59456969758.92729,664896863343.2579,23186780052380.484,89802074169610.19,18870794273469.81
330.03948586157804,9.21584711033263e+16,9.541398562209938e+16,3108288923565655.5,68493819776.09965,765770797442.6937,26269531029565.414,99291616431326.67,20830183129215.566
364.0434344477359,9.626912926459323e+16,9.967939188464317e+16,3246925388271338.0,78754048539.03967,880251697687.7821,29689681136679.152,109703155827444.83,22985389068273.47
401.44777789250946,1.0040521271744251e+17,1.0397268966791994e+17,3386418367995860.5,90361984468.62898,1009713974720.7618,33476446063252.363,121126050049633.69,25356010409552.12
442.5925556817604,1.0453367674174224e+17,1.0825987120625045e+17,3525653387871640.5,103443975752.4357,1155553819315.4084,37661001996600.57,133657476251206.19,27963600593886.82
487.8518112499365,1.0861803686229114e+17,1.1250338567133461e+17,3663400000639138.5,118126134709.91223,1319164635320.5225,42276569643815.12,147403083548045.16,30831864442405.78
537.6369923749302,1.126193250651558e+17,1.1666312861314544e+17,3798344037926601.5,134531906673.20518,1501910667025.1045,47358517058316.17,162477676551071.3,33986873880153.605
592.4006916124232,1.1649729630426685e+17,1.2069769020594054e+17,3929128300353107.0,152779623180.8824,1705100564323.0686,52944488462319.68,179005927550383.38,37457305120231.19
652.6407607736655,1.2021185534917643e+17,1.245658313491245e+17,4054400675997293.0,172980250163.1222,1929963167457.5881,59074566929311.55,197123114109642.12,41274699494177.83
718.9048368510321,1.2372465319803544e+17,1.282281351445091e+17,4172867974616686.5,195235583169.2519,2177628226765.2886,65791480025922.03,216975877692155.44,45473750328683.695
791.7953205361354,1.2700077740617502e+17,1.3164875555933392e+17,4283352926459510.0,219637160678.0143,2449114964719.949,73140858703409.77,238722997363917.16,50092618506722.93
871.9748525897489,1.3001043438993053e+17,1.3479715790547387e+17,4384850908232518.0,246266148838.94122,2745331185538.4917,81171559968201.14,262536170395174.56,55173279612941.25
960.1723378487239,1.3273049860576682e+17,1.3764972181955374e+17,4476582178101134.5,275194383915.6263,3067084906198.739,89936062072559.42,288600788474356.9,60761905849115.83
1057.1895716335964,1.3514578927856464e+17,1.401910627127343e+17,4558034922103992.0,306486635113.2191,3415109145321.096,99490936065522.81,317116694003126.06,66909286216491.164
1163.9085287969563,1.3724993599874298e+17,1.4241492831034838e+17,4628994436266171.0,340203973166.0958,3790098591535.435,109897388662061.45,348298895313642.44,73671288798971.05
1281.299381676652,1.39045714683649e+17,1.4432454773515373e+17,4689554449033388.0,376407915379.7041,4192754553854.8896,121221858201537.1,382378212453999.4,81109369346469.12
1410.4293198443174,1.4054477697918642e+17,1.459323535425919e+17,4740107990643356.0,415164797079.023,4623832207722.1,133536628616051.73,419601816386768.4,89291130754689.11
1552.4722518287492,1.4176675697185643e+17,1.472590599300491e+17,4781317265854725.0,456549636484.9772,5084182163717.356,146920407815985.06,460233614249932.06,98290938472032.83
1708.7194770116243,1.4273781217405552e+17,1.483321558708463e+17,4814064450948936.0,500648663947.8724,5574777333076.989,161458800221672.38,504554422278029.3,108190597345216.0
1880.5914247127869,1.4348872989259477e+17,1.4918394855053062e+17,4839387836023862.0,547559719278.88916,6096716406380.042,177244592907354.9,552861856924593.75,119080095954463.19
2069.6505671840655,1.4405279145083667e+17,1.4984935590583443e+17,4858409802626812.0,597389903270.8751,6651197231786.674,194377775475858.38,605469864659394.1,131058425100472.0
2277.615623902472,1.444636218570034e+17,1.503636833836005e+17,4872264311141808.0,650250188334.8292,7239456844797.003,212965227976605.44,662707802644318.9,144234477800980.97
2506.3771862927197,1.4475325197915978e+17,1.5076061951311194e+17,4882031554503045.0,706247097369.0645,7862679312934.683,233120037844204.9,724918976252585.1,158728038942073.1
2758.0149049219917,1.449505819533072e+17,1.510706452930926e+17,4888686142265091.0,765471968251.2109,8521877031445.021,254960440316850.88,792458534595846.8,174670873608003.94
3034.816395414191,1.4508036510561542e+17,1.51319980638733e+17,4893062837371402.0,827988643044.3112,9217754645928.988,278608407809246.34,865690620572102.9,192207924075749.5
3339.2980349556105,1.4516274563475677e+17,1.5153010221355146e+17,4895840966782037.0,893820584471.7993,9950566593281.352,304187932293233.06,944984666045479.5,211498626496198.44
3674.227838451172,1.452132993768666e+17,1.517177802099459e+17,4897545797074389.0,962938400525.0322,10719979040384.098,331823044175038.5,1030710715002019.8,232718359386880.53
4042.6506222962894,1.4524346276458528e+17,1.5189551523624294e+17,4898563000773855.0,1035248580814.3583,11524945079133.395,361635591132713.7,1123233648854851.0,256060037236503.28
4447.915684525919,1.4526120202045686e+17,1.5207222224025024e+17,4899161223894938.0,1110583992410.593,12363599248110.53,393742767554921.75,1222906181314795.2,281735863788064.5
4893.707252978511,1.452717749939442e+17,1.5225400874430198e+17,4899517777579341.0,1188696444719.1838,13233174852427.049,428254350849100.0,1330060489677969.8,309979260954445.25
5384.077978276362,1.4527846530018544e+17,1.524449228205966e+17,4899743395595403.0,1269251492238.1865,14129946022200.734,465269576540681.94,1444998359899811.8,341046990860608.9
5923.485776103998,1.452832079343218e+17,1.5264759294875158e+17,4899903332025612.0,1351825615324.9426,15049196550251.605,504874387337044.44,1567983668005120.5,375222604896437.5
6516.834353714399,1.452870875472761e+17,1.528637044490401e+17,4900034164685239.0,1435906186784.5295,15985217605416.81,547134036386418.7,1699213135687549.5,412814441212443.3
7169.5177890858395,1.4529066328732224e+17,1.5309435670852416e+17,4900154749801088.0,1520894253034.9539,16931341187639.488,592093754582897.1,1838827083383636.0,454165597993390.1
7887.469567994424,1.452942129384699e+17,1.533402703907007e+17,4900274455117140.0,1606111317452.4497,17880013529025.645,639769901916609.2,1986875020660190.5,499651949690416.5
8677.216524793868,1.4529786254292573e+17,1.536019095642625e+17,4900397531169985.0,1690810183399.9568,18822916246760.99,690145484794731.8,2143303298284671.8,549686980657014.25
9545.938177273256,1.45301664745205e+17,1.538795359033578e+17,4900525753296493.0,1774190680997.1226,19751141015698.43,743163432823614.5,2307932539256785.5,604724101079103.1
10501.531995000581,1.4530562897731907e+17,1.541732449557863e+17,4900659439574199.0,1855420342759.647,20655421013755.83,798724005113223.2,2480455375400630.0,665266317022619.5
11552.68519450064,1.453097563729326e+17,1.5448294601346198e+17,4900798628233324.0,1933660334267.285,21526417605558.855,856673984122911.2,2660394193096865.0,731862757136620.5
12708.953713950705,1.4531403411773744e+17,1.548083635446065e+17,4900942887135303.0,2008095354889.1755,22355054508784.355,916804508192917.4,2847100037609216.5,805118844067786.9
13980.849085345777,1.4531844354830755e+17,1.5514902704369552e+17,4901091586891056.0,2077966826790.7422,23132886939631.34,978845763598955.5,3039734748399094.0,885700542732522.6
15379.933993880357,1.453229609986152e+17,1.5550426534879235e+17,4901243929408232.0,2142607216710.6023,23852483697963.34,1042463805802990.2,3237261109540877.5,974340414510772.1
16918.927393268394,1.4532755809625283e+17,1.5587320870478797e+17,4901398957880654.0,2201473105022.635,24507795305783.402,1107259261323901.1,3438438844041406.0,1071844276878365.2
18611.820132595236,1.4533220197952694e+17,1.562548014332341e+17,4901555564109452.0,2254174148401.0605,25094476429717.254,1172768483000093.0,3641828227020756.0,1179098528998907.2
20474.00214585476,1.453368556397681e+17,1.566478277857241e+17,4901712500046868.0,2300494952785.8057,25610129375758.51,1238467728278078.0,3845803083430622.5,1297078209872091.0
22522.40236044024,1.4534147848124963e+17,1.5705095321139968e+17,4901868396678355.0,2340407117314.542,26054438160918.79,1303780871631396.8,4048574754267087.0,1426855862295014.2
24775.642596484264,1.4534602714286662e+17,1.5746278270102224e+17,4902021791732296.0,2374069387207.0835,26429170206953.246,1368091032176388.8,4248228211433720.5,1569611283218992.0
27254.206856132692,1.453504565981521e+17,1.5788193698236534e+17,4902171166775874.0,2401814955474.6475,26738034968251.938,1430756282988489.2,4442770835382283.5,1726642249142929.0
29980.627541745966,1.4535472152555142e+17,1.583071460905086e+17,4902314993425064.0,2424126380714.2964,26986404696417.848,1491129303516226.0,4630193422889751.0,1899376314048953.5
32979.69029592056,1.4535877791320022e+17,1.5873735823662886e+17,4902451787462724.0,2441600147487.175,27180919902183.062,1548580446449754.2,4808541782329681.0,2089383787136708.5
36278.65932551262,1.4536258483107376e+17,1.5917186003625466e+17,4902580168600965.0,2454904320340.4355,27329017934032.812,1602523237354224.0,4975995868632764.0,2298392008338709.0
39907.525258063884,1.4536610627048173e+17,1.5961040220304112e+17,4902698922514674.0,2464733743203.415,27438434232596.55,1652440851147063.2,5130951939524767.0,2528301051397037.5
43899.277783870275,1.4536931292058992e+17,1.600533230249363e+17,4902807060751324.0,2471767572006.0,27516729561426.246,1697911676640296.5,5272101872561866.0,2781200997259116.0
48290.20556225731,1.4537218372942445e+17,1.605016606468657e+17,4902903873372936.0,2476633481726.265,27570891542348.25,1738631768480909.5,5398502815738211.0,3059390934825032.0
53120.22611848305,1.4537470708885027e+17,1.6095724475117533e+17,4902988968917168.0,2479881715042.7437,27607045753595.734,1774431881780867.5,5509630022377823.0,3365399861780459.0
58433.24873033136,1.4537688149486326e+17,1.6142275898220483e+17,4903062296664456.0,2481970472034.5205,27630293082946.98,1805286966429298.5,5605406285172409.0,3702009675520587.5
64277.57360336451,1.4537871629561846e+17,1.6190175432933888e+17,4903124171863881.0,2483262351285.7305,27630636908336.902,1831316516512982.8,5686202982894335.0,4072280463189475.0
70706.33096370097,1.4538022753861488e+17,1.6239868634232093e+17,4903175135687258.0,2484029909187.234,27630920101051.01,1852775127401365.5,5752811040187046.0,4479582550420278.5
77777.96406007107,1.453814434183968e+17,1.6291879577416115e+17,4903216138942414.0,2484050672004.7314,27631147945349.055,1870032769413793.0,5806378552107911.0,4927609696683096.0
85556.76046607818,1.453823954034321e+17,1.6346807838432867e+17,4903248242844326.0,2484066928459.513,27631326338239.85,1883548566957475.5,5848331216394229.0,5420439561434038.0
94113.436512686,1.4538312008677696e+17,1.6405316582667686e+17,4903272681424901.0,2484079303424.976,27631462136942.6,1893837478316923.2,5880267592273282.0,5962552446444369.0
103525.78016395462,1.453836552685231e+17,1.646812270044984e+17,4903290729421042.0,2484088442389.784,27631562424850.984,1901435912833143.2,5903852767193012.0,6558876675660841.0
113879.3581803501,1.4538403792710432e+17,1.653598758983061e+17,4903303633860776.0,2484094976811.627,27631634131379.203,1906868861870304.5,5920716345497231.0,7214833400865231.0
125268.29399838512,1.4538430227814474e+17,1.660971047905886e+17,4903312548601581.0,2484099490969.403,27631683668211.87,1910622105444903.0,5932366193373450.0,7936385881864805.0
137796.12339822366,1.4538447834946733e+17,1.669012539341049e+17,4903318486275214.0,2484102497629.51,27631716662276.324,1913121968410221.8,5940125614369765.0,8730093696422730.0
151576.73573804603,1.4538459117106662e+17,1.677810231524851e+17,4903322290971097.0,2484104424213.557,27631737803953.234,1914723818913761.5,5945097657073922.0,9603172372231220.0
166735.40931185064,1.4538468101470957e+17,1.687445615351631e+17,4903325320778675.0,2484105958417.383,27631754639782.992,1914724258506311.5,5948155961141948.0,1.0563559119428304e+16
183409.95024303574,1.453847469989207e+17,1.6980105551733574e+17,4903327545971894.0,2484107085188.576,27631767004585.816,1914724581110445.8,5948156026654629.0,1.161998449058828e+16
201751.94526733932,1.453847485676314e+17,1.709631246766007e+17,4903327598873711.0,2484107111976.472,27631767298547.094,1914724588780134.8,5948156028184353.0,1.2782052018720434e+16
221928.13979407327,1.4538474859304605e+17,1.72241399443759e+17,4903327599730774.0,2484107112410.467,27631767303309.57,1914724588904393.8,5948156028209150.0,1.4060326759453202e+16
244121.9537734806,1.4538474859402765e+17,1.7364750162342582e+17,4903327599763873.0,2484107112427.2246,27631767303493.45,1914724588909188.2,5948156028210110.0,1.5466428938099102e+16
268535.1491508287,1.4538474859482115e+17,1.751942139611267e+17,4903327599790629.0,2484107112440.7676,27631767303642.18,1914724588913074.0,5948156028210881.0,1.7013141274975256e+16
295389.6640659116,1.4538474859569254e+17,1.768955974601592e+17,4903327599820020.0,2484107112455.656,27631767303805.477,1914724588917330.5,5948156028211727.0,1.8714524773101216e+16
324929.6304725028,1.453847485966514e+17,1.7876711922144176e+17,4903327599852349.0,2484107112472.027,27631767303985.133,1914724588922020.2,5948156028212660.0,2.0586046533386708e+16
357423.5935197531,1.45384748597706e+17,1.808257930527923e+17,4903327599887913.0,2484107112490.041,27631767304182.81,1914724588927175.0,5948156028213692.0,2.2644720363640564e+16
393166.95287172846,1.4538474859886646e+17,1.8309033413894448e+17,4903327599927046.0,2484107112509.851,27631767304400.168,1914724588932849.2,5948156028214822.0,2.490926144858692e+16
432484.6481589014,1.4538474860014234e+17,1.8558132917843e+17,4903327599970078.0,2484107112531.643,27631767304639.33,1914724588939086.5,5948156028216068.0,2.7400256486745172e+16
475734.11297479155,1.453847486015461e+17,1.883214235339715e+17,4903327600017420.0,2484107112555.6157,27631767304902.363,1914724588945949.5,5948156028217431.0,3.0140350840827104e+16
