t(s),Total solute volume 1,Total retention volume 1,Total 1 volume 1,Total 2 volume 1,Total 3 volume 1,Total 4 volume 1,Total 5 volume 1,Total 6 volume 1
1.0,4091111498795143.5,4161545596435983.0,70434097640829.31,0.0,0.0,0.0,0.0,0.0
2.1,6248593515959107.0,6409676138442972.0,107577972355577.86,7359602251.627005,69419613711.74513,3126945378028.9746,37159053569806.77,13141871964471.693
3.3100000000000005,7954086741899614.0,8231951548564455.0,136940268250376.53,19671379773.531116,185543853279.95227,8332586399933.314,97517670482588.14,34869066298905.01
4.641000000000001,9449532816854300.0,9873437257469724.0,162686331502647.9,36830907536.48757,347387963239.8938,15573705167538.104,180400516378484.25,64859668695993.78
6.105100000000002,1.0823763258843816e+16,1.142640471626574e+16,186345510881975.16,59143623727.679115,557832793638.1083,24979755153741.336,287181198748784.75,103518016220064.08
7.7156100000000025,1.212012294172314e+16,1.2938087325934038e+16,208664044047934.5,87107669613.24673,821576424093.3209,36760574943605.71,420099240012383.75,151531841113287.47
9.487171000000004,1.336309799549198e+16,1.4437394316197326e+16,230063491249306.28,121357452383.04617,1144601992649.2935,51183085520062.36,582002164143869.9,209781620347101.22
11.435888100000005,1.4567735751618276e+16,1.5944388393846508e+16,250802911734161.72,162646063951.3132,1534011929573.5894,68564134824895.75,776270301802753.0,279318635872893.62
13.579476910000007,1.574372614272595e+16,1.747442059081719e+16,271049130260485.38,211841264905.00073,1997990105836.9573,89268977299790.89,1006802329265018.2,361364179895170.44
15.937424601000009,1.6897422286745368e+16,1.9040206182064404e+16,290911524037150.06,269927338339.22394,2545819335562.6987,113712213738027.11,1278027392287487.8,457317018582391.9
18.53116706110001,1.803294145301906e+16,2.0652984405824344e+16,310460977266807.9,338009870632.99963,3187926483239.072,142359982983205.38,1594931357434751.8,568764698766708.2
21.384283767210015,1.915281089849124e+16,2.2323227053943132e+16,329741000045826.56,417322127779.30035,3935942622313.2134,175732863194335.12,1963091843047979.0,697497184413565.1
24.522712143931017,2.0258370519626908e+16,2.4061108230890764e+16,348774660535637.2,509232331942.1343,4802771689268.614,214409203579822.12,2388719407165367.5,845522435961826.4
27.97498335832412,2.135003804959813e+16,2.5876841218425012e+16,367569150674218.8,615251426257.3403,5802663748882.224,259028725050367.8,2878703444022095.5,1015083933905062.9
31.772481694156536,2.242749355860219e+16,2.778093927498946e+16,386118962586727.06,737041060270.9271,6951290347550.577,310296288475437.44,3440661925626014.0,1208680208291300.8
35.949729863572195,2.3489815696691156e+16,2.978443278533508e+16,404408234180633.1,876421618037.1576,8265820276484.899,368985766959148.75,4082994491614964.0,1429086353994593.5
40.544702849929415,2.4535589270711652e+16,3.1899062280690068e+16,422412601219796.75,1035380184243.2196,9764994757920.193,435943989788525.75,4814938713889048.0,1679377330138875.5
45.59917313492236,2.5562996619411908e+16,3.4137459682068624e+16,440100770462345.3,1216078423396.0706,11469201818536.357,512094760222116.5,5646629781476931.0,1962952470253412.0
51.1590904484146,2.6569901209256916e+16,3.651332595413903e+16,457435958867449.3,1420860453659.5369,13400550619166.78,598442996670401.0,6589164570489348.0,2283559807782018.5
57.27499949325607,2.7553929716861892e+16,3.9041610836777704e+16,474377306747260.1,1652260959515.4102,15582948044000.516,696079121497324.2,7654672464023568.0,2645317018644200.5
64.00249944258168,2.8512558126172636e+16,4.173869873562135e+16,490881360039005.1,1913014056953.4568,18042182397047.59,806183949353577.9,8856398061991761.0,3052722041610507.0
71.40274938683986,2.9443207958973044e+16,4.462260381336437e+16,506903727038356.9,2206063889430.3345,20806023440895.516,930034552033609.9,1.020880615381938e+16,3510639334169576.5
79.54302432552385,3.0343360528341164e+16,4.771317660759018e+16,522401045427119.75,2534578717047.7627,23904355420741.895,1069011961132406.4,1.1727728038779488e+16,4024236099772222.5
88.49732675807624,3.1210698818722724e+16,5.103232396898284e+16,537333424938555.44,2901971438528.877,27369370836386.043,1224612145452785.8,1.3430579069052602e+16,4598829168541180.0
98.34705943388387,3.204328365347714e+16,5.460424365759268e+16,551667480337451.3,3311930721693.2935,31235864396839.07,1398462285292507.0,1.533667939180976e+16,5239603051557363.0
109.18176537727226,3.2839752736478796e+16,5.8455674437441896e+16,565379758211483.9,3768466668950.586,35541664214424.26,1592344156099894.2,1.746767183282241e+16,5951215822945813.0
121.09994191499949,3.359948790767641e+16,6.261616182190729e+16,578459616504045.6,4275970046992.8857,40328190970572.61,1808223820057414.0,1.9847909166362244e+16,6737477150289726.0
134.20993610649944,3.432265131841905e+16,6.7118338604772904e+16,590909847269213.4,4839273622281.987,45641036631100.664,2048281423010706.2,2.250452002798343e+16,7601495677837150.0
148.6309297171494,3.5010032032755004e+16,7.199821802560364e+16,602744035587432.2,5463698741178.093,51530403264890.01,2314932376298530.5,2.546692883028123e+16,8546586648675314.0
164.49402268886433,3.5662801918421692e+16,7.729549642358474e+16,613982356770184.6,6155085788461.568,58051389119518.41,2610839716386004.5,2.8766106464574524e+16,9577559492524300.0
181.94342495775078,3.628235962472383e+16,8.305386261831373e+16,624648890172121.2,6919828953017.398,65264315251160.836,2938929108869128.5,3.2434221245348184e+16,1.0701519604996408e+16
201.13776745352587,3.6870302390149496e+16,8.932131395472298e+16,634771133856077.9,7764929663886.813,73235228685550.1,3302414913928258.5,3.650498759690553e+16,1.1927837761534274e+16
222.25154419887846,3.742842374499426e+16,9.615048371912718e+16,644379965120690.1,8698059995749.989,82036500019478.6,3704833702779718.5,4.101441166399346e+16,1.3267700082223782e+16
245.47669861876633,3.7958660644598664e+16,1.0359898980676018e+17,653508730410598.8,9727620582532.467,91747369422037.66,4150077958419805.0,4.6001550557526344e+16,1.473371692580011e+16
271.024368480643,3.846299488222137e+16,1.1172981801907234e+17,662191548077673.2,10862786006542.945,102454374617704.73,4642426835202809.0,5.150914021424641e+16,1.6339747378700004e+16
299.1268053287073,3.8943346359547816e+16,1.206117540368301e+17,670461470948305.2,12113538462479.957,114251668401715.98,5186574668174769.0,5.7584110167933336e+16,1.8100896163361376e+16
330.03948586157804,3.940148868163162e+16,1.3031987619190283e+17,678349033223600.0,13490693435592.2,127241260969317.7,5787659272096471.0,6.4278038319626856e+16,2.0033608930919704e+16
364.0434344477359,3.983900153892516e+16,1.4093611774658806e+17,685881430705706.6,15005921465625.754,141533225444263.66,6451292177771660.0,7.164758552507376e+16,2.2155817927201716e+16
401.44777789250946,4.025726186401911e+16,1.5254990363959914e+17,693082368569262.9,16671769548257.932,157245900063836.6,7183592731852285.0,7.975493390533883e+16,2.448711510020784e+16
442.5925556817604,4.065746817946513e+16,1.6525886333092093e+17,699972480549090.0,18501684869793.707,174506112394093.44,7991227689194914.0,8.866824325861456e+16,2.7048943925833444e+16
487.8518112499365,4.104068877426781e+16,1.7916961880932698e+17,706570158359456.9,20510042476287.227,193449440624866.97,8881457586212252.0,9.846213488038418e+16,2.98648079270022e+16
537.6369923749302,4.140792326146068e+16,1.9439864508677126e+17,712892611478294.0,22712177211621.723,214220515054404.84,9862190813508228.0,1.0921820895016862e+17,3.2960496757889764e+16
592.4006916124232,4.176016783296123e+16,2.1107319952800995e+17,718956990579599.6,25124418926332.47,236973350314472.06,1.0942045937946644e+16,1.2102559906737824e+17,3.636433192990289e+16
652.6407607736655,4.209847644626951e+16,2.2933231600338554e+17,724781440924346.2,27764128684224.86,261871686876092.12,1.2130422497790734e+16,1.3398156503184891e+17,4.0107434770991784e+16
718.9048368510321,4.242401265293075e+16,2.4932785988839702e+17,730385994636382.1,30649732586539.406,289089309943337.2,1.343758024384745e+16,1.4819212247988374e+17,4.4224019474569304e+16
791.7953205361354,4.2738089316423464e+16,2.7122564009304957e+17,735793254479823.5,33800748964429.4,318810305654208.3,1.4874726644577946e+16,1.6377270552941123e+17,4.8751714293538216e+16
871.9748525897489,4.3042195702456376e+16,2.9520657429653485e+17,741028860237830.5,37237804084185.5,351229208792088.44,1.645411241662555e+16,1.8084885616139053e+17,5.373191414294799e+16
960.1723378487239,4.333801314015125e+16,3.2146790311944064e+17,746121758326585.8,40982631151280.97,386550992829933.56,1.8189134872068624e+16,1.9955693160563654e+17,5.921016811927583e+16
1057.1895716335964,4.3627421572221784e+16,3.502244478662956e+17,751104314553851.5,45058047253361.875,424990851747460.0,2.0094448968602116e+16,2.200448183780454e+17,6.523660573387227e+16
1163.9085287969563,4.391249987292196e+16,3.817099045511888e+17,756012319583734.1,49487902913588.23,466773723348073.8,2.2186086084827136e+16,2.424726386537421e+17,7.1866405993853e+16
1281.299381676652,4.41955229227039e+16,4.161781640564144e+17,760884938565724.4,54296999117792.91,512133505602846.0,2.4481580698659784e+16,2.670134311474871e+17,7.916031384427736e+16
1410.4293198443174,4.4478958226710264e+16,4.539046443658098e+17,765764652911490.0,59510967045937.41,561311920997312.3,2.7000105307343652e+16,2.938537843820631e+17,8.71852089087385e+16
1552.4722518287492,4.476546448598672e+16,4.951876157504163e+17,770697235691097.8,65156106330131.805,614556989423203.9,2.9762614084348844e+16,3.231943949192034e+17,9.601473192943304e+16
1708.7194770116243,4.505789408794993e+16,5.403494934238217e+17,775731794504469.6,71259178563012.8,672121078641848.4,3.2791995919159164e+16,3.5525051655480506e+17,1.057299748101973e+17
1880.5914247127869,4.535930105668268e+16,5.897380643397517e+17,780920908350598.8,77847154107065.69,734258513837375.5,3.611323763180224e+16,3.902522583704891e+17,1.1642024070448216e+17
2069.6505671840655,4.567295564288074e+16,6.437276052263021e+17,786320878806140.6,84946912145742.34,801222745577661.8,3.9753598296344696e+16,4.2844467958891834e+17,1.2818388116162837e+17
2277.615623902472,4.600236645929454e+16,7.027198373207501e+17,791992111108046.4,92584896520001.2,873263100012055.2,4.374279574310629e+16,4.70087617065863e+17,1.4112921794484594e+17
2506.3771862927197,4.635131088035201e+16,7.671446491891045e+17,797999637512722.2,100786733350622.44,950621167688681.5,4.8113206422589496e+16,5.1545516659032934e+17,1.5537555775728144e+17
2758.0149049219917,4.672387430727074e+16,8.374605020019154e+17,804413793283117.1,109576820862826.6,1033526928960273.9,5.290007986564744e+16,5.648347215348721e+17,1.710543087510181e+17
3034.816395414191,4.712449882004057e+16,9.141544111181033e+17,811311054278995.9,118977907230250.64,1122194764796683.5,5.814176888146359e+16,6.185254513517257e+17,1.8831020833856752e+17
3339.2980349556105,4.755804164587439e+16,9.977413731377642e+17,818775043545116.2,129010678517558.08,1216819560770042.5,6.387997623981644e+16,6.768360775026143e+17,2.0730267246662653e+17
3674.227838451172,4.802984369768938e+16,1.0887630779922438e+18,826897711261004.5,139693385555567.22,1317573175535170.8,7.0160017603692776e+16,7.400817752822926e+17,2.2820727713621725e+17
4042.6506222962894,4.8545808069246904e+16,1.187785710410179e+18,835780686098216.9,151041545073758.78,1424601606155515.0,7.703109842530315e+16,8.085799965269056e+17,2.512173835513956e+17
4447.915684525919,4.9112487657335624e+16,1.2953966036391217e+18,845536783699311.4,163067755309613.16,1538023228549131.8,8.454659858347155e+16,8.826449707864212e+17,2.7654591884433286e+17
4893.707252978511,4.9737179781703096e+16,1.4121994604660424e+18,856291635616319.5,175781667460688.62,1657928501860524.0,9.276435142369349e+16,9.62580602594657e+17,3.044273248610496e+17
5384.077978276362,5.042802345090223e+16,1.5388078032428833e+18,868185363781821.2,189190148494966.84,1784381470084708.5,1.0174689155466237e+17,1.0486714432339191e+18,3.3511968802103674e+17
5923.485776103998,5.119409130360865e+16,1.6758362587342956e+18,881374163285904.9,203297653386876.7,1917423229447488.5,1.1156162529171618e+17,1.141171383253387e+18,3.6890706383946445e+17
6516.834353714399,5.204546262260734e+16,1.8238892319793336e+18,896031559263660.9,218106789762573.66,2057077199063887.8,1.2228084491638891e+17,1.2402896984615278e+18,4.0610201043072115e+17
7169.5177890858395,5.299325545599569e+16,1.9835464895592934e+18,912348959724787.1,233618998139217.7,2203355468735921.2,1.3398145781400155e+17,1.3461741064724508e+18,4.4704834639024154e+17
7887.469567994424,5.404958414695112e+16,2.1553451812498007e+18,930534924157337.5,249835179762104.62,2356264638962436.5,1.4674422877712733e+17,1.4588905833839729e+18,4.9212415019886957e+17
8677.216524793868,5.522739333143461e+16,2.339757921063613e+18,950812305334089.5,266755978661972.84,2515808388417418.0,1.6065223535112758e+17,1.5783998945036419e+18,5.417450212049934e+17
9545.938177273256,5.654010191197993e+16,2.5371667871806715e+18,973412119595891.4,284381272604275.25,2681982576229053.0,1.7578811662631104e+17,1.704531165661912e+18,5.963676270120383e+17
10501.531995000581,5.800097455420725e+16,2.7478335718621814e+18,998562726110111.9,302708277727653.75,2854757281580765.0,1.9222957659071306e+17,1.8369534228337943e+18,6.564935695980499e+17
11552.68519450064,5.962213220984581e+16,2.97186741744914e+18,1026472791599584.5,321727586692117.5,3034039394583653.5,2.1004253450959552e+17,1.9751468973912115e+18,7.226736135656113e+17
12708.953713950705,6.141313102947068e+16,3.209192192907517e+18,1057306824552175.8,341416545967500.8,3219610197766231.5,2.2927138746380336e+17,2.1183770059016108e+18,7.955123349443543e+17
13980.849085345777,6.337909904883714e+16,3.4595175862340767e+18,1091153096295014.9,361729771985534.7,3411036109296632.5,2.4992619097499395e+17,2.265675110126543e+18,8.756732671061231e+17
15379.933993880357,6.55185375733583e+16,3.7223197044249677e+18,1127985789947657.2,382587421625103.25,3607558456858960.0,2.7196729411042336e+17,2.415831102395293e+18,9.638846386774582e+17
16918.927393268394,6.782106660001057e+16,3.9968384823641487e+18,1167626186565763.0,403863044371587.6,3807979559800804.0,2.952891048266888e+17,2.56740303067537e+18,1.0609458114713414e+18
18611.820132595236,7.02655812162989e+16,4.282099612153595e+18,1209710927427785.8,425374146436837.3,4010574626367104.0,3.1970599336807904e+17,2.7187478501292687e+18,1.1677345277397146e+18
20474.00214585476,7.281940412458046e+16,4.5769671637477473e+18,1253677426290121.8,446879357786988.06,4213066049595509.0,3.449443398035461e+17,2.8680747361776563e+18,1.2852150608082929e+18
22522.40236044024,7.543896400171363e+16,4.880229153260771e+18,1298775550715491.8,468085556857557.25,4412691521656140.0,3.706446912302362e+17,3.0135186122146365e+18,1.4144473331849495e+18
24775.642596484264,7.80722413664551e+16,5.19071255714488e+18,1344109732462513.0,488666100447451.8,4606376508019608.0,3.963764324415062e+17,3.1532276988485555e+18,1.5565970321474294e+18
27254.206856132692,8.066275944161165e+16,5.507418272068387e+18,1388707675440648.8,508287946097973.5,4790989973758405.0,4.216645016038354e+17,3.285456294490541e+18,1.7129467309370954e+18
29980.627541745966,8.315443707346925e+16,5.829662349353903e+18,1431603903292269.0,526642357097288.1,4963633200085342.0,4.4602451836075366e+17,3.408653486795069e+18,1.884908027664141e+18
32979.69029592056,8.54963767383542e+16,6.157208916687539e+18,1471922187852245.5,543472607781552.3,5121899740269216.0,4.690005650217009e+17,3.5215399338245166e+18,2.074034746567065e+18
36278.65932551262,8.764674194388058e+16,6.490382504157513e+18,1508942299488928.2,558593317556553.8,5264056151134010.0,4.9019959408065536e+17,3.6231672790582963e+18,2.2820372973065047e+18
39907.525258063884,8.957521921172366e+16,6.83015164746244e+18,1542142389187937.0,571899021422754.9,5389121284406305.0,5.0931786466745043e+17,3.712957060235981e+18,2.5107983406522706e+18
43899.277783870275,9.126397462621147e+16,7.17817991313314e+18,1571215453388579.8,583362771715507.9,5496851905683274.0,5.2615702812046675e+17,3.7907175317241216e+18,2.762389948531549e+18
48290.20556225731,9.270732577718893e+16,7.536843804566954e+18,1596063683858083.8,593027598481707.0,5587661443377918.0,5.406295141556195e+17,3.8566377455898235e+18,3.039092466318608e+18
53120.22611848305,9.3910481930469e+16,7.90921931724627e+18,1616776777197263.8,600994086907309.9,5662502605657790.0,5.5275420980017216e+17,3.9112590644907505e+18,3.343415287555109e+18
58433.24873033136,9.488769218107392e+16,8.29904081697953e+18,1633600053176909.0,607406599476871.9,5722737629104916.0,5.626441089583902e+17,3.955425527811741e+18,3.678119743746571e+18
64277.57360336451,9.566006656262277e+16,8.710637982972982e+18,1646896943506960.2,612439579291231.8,5770009596009484.0,5.7048793889300845e+17,3.990216327400419e+18,4.0462443039981327e+18
70706.33096370097,9.625326797493238e+16,9.148858850866498e+18,1657109257179568.5,616284549254837.0,5806120501877452.0,5.765279877544052e+17,4.016865801445466e+18,4.4511322793833795e+18
77777.96406007107,9.66952395018034e+16,9.618989027732232e+18,1664718055387523.2,619138093227888.2,5832918662502248.0,5.810365194226572e+17,4.0366782532876073e+18,4.896462240709037e+18
85556.76046607818,9.701412169603504e+16,1.012667819931576e+19,1670207796968073.2,621191149629239.6,5852198481264867.0,5.842931745423306e+17,4.050945917664738e+18,5.386281387984804e+18
94113.436512686,9.72365032465952e+16,1.0677884522523759e+19,1674036223204488.5,622620102417605.8,5865617072213045.0,5.865655023484113e+17,4.0608780894391245e+18,5.92504215409178e+18
103525.78016395462,9.738611770864674e+16,1.1278845243176165e+19,1676611921764826.5,623580196369822.4,5874632655208920.0,5.880942091160417e+17,4.067547712395661e+18,6.517642379182475e+18
113879.3581803501,9.748304516483829e+16,1.19360782747446e+19,1678280583198435.8,624201642215715.6,5880468146575736.0,5.89083921756776e+17,4.071858908185318e+18,7.169469449265661e+18
125268.29399838512,9.754341078938501e+16,1.2656415298585747e+19,1679319811779280.5,624588452638833.8,5884097094898375.0,5.896994089771569e+17,4.074535628390954e+18,7.886448845068919e+18
137796.12339822366,9.757950827740864e+16,1.3447063160140597e+19,1679941250552861.8,624819552236883.0,5886267126965395.0,5.900664565120749e+17,4.0761285768951117e+18,8.675097590526222e+18
151576.73573804603,9.760023235034741e+16,1.4315687658105694e+19,1680298027238927.2,624952229732441.2,5887512969485103.0,5.902761087772197e+17,4.0770354287508506e+18,9.542583125000851e+18
166735.40931185064,9.761168470795768e+16,1.5270512854611456e+19,1680495186076843.8,625025548814892.0,5888201435144828.0,5.903908077151128e+17,4.0775284911847245e+18,1.049678814883362e+19
183409.95024303574,9.761782936106002e+16,1.6320429535252429e+19,1680600969767444.5,625064887466499.0,5888570824466259.0,5.904510917333295e+17,4.0777843377302467e+18,1.1546382039746118e+19
201751.94526733932,9.762110243208758e+16,1.7475108116992072e+19,1680657317542454.2,625085841976720.1,5888767586853732.0,5.904818449106519e+17,4.0779112339979996e+18,1.270089942490494e+19
221928.13979407327,9.762291806703987e+16,1.874511356118857e+19,1680688574728179.0,625097465842896.5,5888876734614240.0,5.904974881869873e+17,4.0779718469328113e+18,1.3970826645226572e+19
244121.9537734806,9.762405127163502e+16,2.0142021885144437e+19,1680708083487958.0,625104720725185.1,5888944857674916.0,5.905059030875867e+17,4.0780003664349404e+18,1.5367696806688395e+19
268535.1491508287,9.762490314564072e+16,2.167853950214957e+19,1680722748981930.2,625110174502303.1,5888996068373802.0,5.905111486656499e+17,4.078014348138442e+18,1.6904194273207984e+19
295389.6640659116,9.762567459710746e+16,2.336862707981542e+19,1680736029956200.2,625115113406595.4,5889042444405140.0,5.905146986446509e+17,4.0780222904930493e+18,1.859426952249286e+19
324929.6304725028,9.762645756543918e+16,2.52276318101226e+19,1680749509199771.0,625120126042829.0,5889089512757002.0,5.905183015209079e+17,4.0780267303127055e+18,2.045326536157553e+19
