t(s),Total solute volume 1,Total retention volume 1,Total 1 volume 1,Total 2 volume 1,Total 3 volume 1,Total 4 volume 1,Total 5 volume 1,Total 6 volume 1
1.0,4979684106815717.0,5254949822814240.0,275265715998509.44,0.0,0.0,0.0,0.0,0.0
2.1,7647297289841238.0,8077608395341346.0,422722708139097.44,3422398887.8359423,43194034123.26377,1234671727319.6794,5176831176162.907,1130278024527.0369
3.3100000000000005,9790000006097542.0,1.0351455811458368e+16,541164375730847.75,9200005818.319523,116080242872.90916,3269899542958.2705,13838657090309.414,3057592748018.1743
4.641000000000001,1.1701115377185536e+16,1.2386020157497074e+16,646804743545100.6,17330204625.302532,218627288928.92618,6104139019080.26,25964377579412.312,5795562674420.75
6.105100000000002,1.3489770980922004e+16,1.429690420618484e+16,745675987043227.0,28010725501.51622,353330083742.0506,9806609177800.354,41842907185257.18,9426381047293.697
7.7156100000000025,1.5210539567725374e+16,1.6142344276388308e+16,840794687865313.1,41543401002.88576,523995033887.44934,14480700595985.445,61899913901486.02,14063867865263.783
9.487171000000004,1.689555480829815e+16,1.7957053120019372e+16,933937078788596.5,58312258573.33765,735464308837.0762,20256844744943.113,86664387346351.6,19846224273922.094
11.435888100000005,1.8565876644314788e+16,1.976420530663812e+16,1026267277896325.4,78780248362.52519,993574759761.3563,27291563199750.582,116762836212049.28,26934630007070.22
13.579476910000007,2.0236417546112836e+16,2.158064143403339e+16,1118609593588398.4,103493172636.14845,1305207503898.6548,35768817430212.57,152923006504307.1,35513769721018.82
15.937424601000009,2.1918381315543484e+16,2.3419454476867108e+16,1211583332481959.0,133087464800.5578,1678385983790.9287,45902585386844.77,195982465273237.75,45793304733009.59
18.53116706110001,2.3620589367803716e+16,2.5291406982775304e+16,1305676111351019.8,168300662512.5429,2122407957653.5823,57940300418243.32,246900505022405.94,58009989559685.586
21.384283767210015,2.5350253660424756e+16,2.7205768426705896e+16,1401286581797406.8,209984179271.4506,2648006441624.514,72167028513049.36,306772811024326.4,72430354325413.53
24.522712143931017,2.711345103705193e+16,2.9170841376027664e+16,1498750650242621.0,259118292611.84378,3267538573372.5806,88910358644618.89,376848712638974.44,89353960583523.53
27.97498335832412,2.8915425611831708e+16,3.1194310138556916e+16,1598358192638987.5,316829417533.87897,3995203261287.286,108546028681723.73,458551007520224.4,109117265205405.22
31.772481694156536,3.0760786658539136e+16,3.328348321715317e+16,1700363993065688.2,384409817360.9085,4847289535499.586,131504336699667.86,553498438216507.2,132098091279338.7
35.949729863572195,3.2653640174591748e+16,3.5445469887165244e+16,1804995016116192.0,463339959237.37964,5842458210577.749,158277408076138.72,663530982646046.9,158720507565208.66
40.544702849929415,3.459757430136456e+16,3.768731488012756e+16,1912449600313949.0,555312116207.4227,7002038860436.862,189426375447079.56,790800237986593.1,189507014038752.28
45.59917313492236,3.6596100892469224e+16,4.00161058961357e+16,2022921868995021.5,662264681346.7528,8350463526755.572,225594253007164.62,937566224541166.0,224909928915189.38
51.1590904484146,3.865219139918834e+16,4.2439063678596296e+16,2136576072376629.5,786406810692.8667,9915575457300.12,267512295473704.3,1106569334624509.0,265512594665078.47
57.27499949325607,4.076865415642517e+16,4.496362101957729e+16,2253567445005486.5,930259886579.4896,11729152873958.684,316015499284438.9,1300879561161231.2,311844944940419.1
64.00249944258168,4.2948290165856104e+16,4.759749522930119e+16,2374050817906515.0,1096702817443.4608,13827481009919.883,372061568468094.56,1524006923473920.5,364161569769227.5
71.40274938683986,4.519446301628877e+16,5.03487573347327e+16,2498212125517222.5,1289037035345.8167,16252175880823.297,436765077586511.5,1779879429905781.8,421896472518314.9
79.54302432552385,4.751232572651846e+16,5.322590035195562e+16,2626336228855151.0,1511089961233.023,19051500049437.883,511459858786549.0,2071999047870095.5,483216899914700.25
88.49732675807624,4.991021348658287e+16,5.623790790165781e+16,2758883907995435.5,1767360773743.5752,22282216902897.215,597771734575330.8,2400594844462930.5,546394350364518.5
98.34705943388387,5.239945965070304e+16,5.939432226740904e+16,2896481682551506.5,2063155059829.1301,26011291645929.07,697611029616245.8,2760623958951929.5,612071498880694.4
109.18176537727226,5.499134750913492e+16,6.27053063225713e+16,3039753284777257.0,2404618509057.979,30316279874143.89,812991228134319.5,3146187858365947.0,682305543775769.2
121.09994191499949,5.7693676319872776e+16,6.618168590795735e+16,3189129808357242.5,2798697878266.743,35284767132915.58,945780583737331.8,3556308514116584.0,758707216862332.9
134.20993610649944,6.051106324843804e+16,6.983495029387566e+16,3344866394060074.0,3253212835987.888,41015220024348.85,1097636852912591.9,3994767646497005.5,842347719107663.2
148.6309297171494,6.34471999260645e+16,7.367718297277498e+16,3507166975257654.0,3777048636654.0,47619373306534.336,1270102414416819.5,4467186672023437.0,934130563069377.2
164.49402268886433,6.650596053760503e+16,7.772089700830731e+16,3676245534014568.5,4380352003221.7695,55224639672253.086,1464705890049461.5,4979424468844844.0,1034955586118049.2
181.94342495775078,6.969131460642141e+16,8.19787583769758e+16,3852321280164531.5,5074696580061.972,63976112190000.2,1683037873022776.2,5537260140774220.0,1145773667822715.5
201.13776745352587,7.300677189958181e+16,8.646319400824427e+16,4035587968900173.5,5873228533970.061,74038299956009.86,1926816845785289.5,6146493999535910.0,1267611765951119.5
222.25154419887846,7.64546886487153e+16,9.118589555418859e+16,4226175556270638.0,6790795155508.649,85596640107787.86,2197949472219528.2,6813105132642824.0,1401589309076980.2
245.47669861876633,8.003553168714149e+16,9.615724404057234e+16,4424109532767392.5,7844049876069.574,98858709998661.47,2498581711387370.0,7543386578184496.0,1548931771216804.2
271.024368480643,8.374714148411435e+16,1.013856939914162e+17,4629270199852271.0,9051523172093.389,114055014415549.47,2831138030450448.0,8344054164967577.0,1710983574443598.0
299.1268053287073,8.758403267312707e+16,1.0687716723023237e+17,4841354022128041.0,10433647615008.62,131439208631465.9,3198348991362626.5,9222337408194280.0,1889221279173887.5
330.03948586157804,9.153677708311592e+16,1.1263451433210314e+17,5059839542095913.0,12012725557432.162,151287622277527.44,3603269710757495.5,1.0186060082861882e+16,2085267565436877.8
364.0434344477359,9.55915177809752e+16,1.1865710376939544e+17,5283960537820095.0,13812829286206.229,173897967139331.97,4049292587334363.5,1.124371574788045e+16,2300906318959523.0
401.44777789250946,9.97296605449169e+16,1.2494059457711365e+17,5512688988338365.0,15859625814881.213,199587142490146.03,4540157580504699.0,1.2404541639535538e+16,2538099055513125.5
442.5925556817604,1.039277820272246e+17,1.3147693894231664e+17,5744730015806013.0,18180121824091.156,228688093934161.16,5079962687266309.0,1.3678593111292434e+16,2799002884969234.0
487.8518112499365,1.0815778358414357e+17,1.3825464871637811e+17,5978530405009264.0,20802328711168.418,261545736827938.97,5673176468915974.0,1.5076819985001726e+16,3085990207768403.5
537.6369923749302,1.1238730848771763e+17,1.4525934676143402e+17,6212301678196768.0,23754853531298.49,298512025525062.0,6324653743488947.0,1.6611145632975338e+16,3401670339998883.5
592.4006916124232,1.1658042927045747e+17,1.524746116229527e+17,6444058097008643.0,27066429068275.688,339940337556308.44,7039654991484380.0,1.8294549223404868e+16,3748913273972592.5
652.6407607736655,1.2069860117656147e+17,1.5988311212022662e+17,6671669367508412.0,30765405426277.324,386179447802745.44,7823869660278755.0,2.0141151265949612e+16,4130875796699068.0
718.9048368510321,1.2470186574553517e+17,1.674680155770704e+17,6892927164006980.0,34879235969581.895,437567486774390.5,8683443390721864.0,2.2166302346198304e+16,4551030207864091.0
791.7953205361354,1.2855027358369536e+17,1.752146375371427e+17,7105623760241139.0,39434001021144.5,494426396205060.3,9625009189255556.0,2.4386674705424732e+16,5013195901299671.0
871.9748525897489,1.3220547609381206e+17,1.8311228044542928e+17,7307639991142078.0,44454021506047.54,557057491941553.06,1.0655722667739688e+16,2.6820356080005716e+16,5521574099281697.0
960.1723378487239,1.3563241256693438e+17,1.911561840419649e+17,7497038477813069.0,49961619023845.625,625738788135511.0,1.1783301592217634e+16,2.948694494055417e+16,6080786057286145.0
1057.1895716335964,1.388009938996065e+17,1.9934948339450237e+17,7672156659805108.0,55977075652836.83,700724693838171.0,1.3016070034020362e+16,3.2407645943422036e+16,6695915088157674.0
1163.9085287969563,1.4168766161016507e+17,2.0770504601631853e+17,7831692931267949.0,62518833431946.26,782248532423649.8,1.436300731303273e+16,3.5605364006840976e+16,7372552789156113.0
1281.299381676652,1.4427668647803418e+17,2.1624704325363507e+17,7974778385248246.0,69603948376927.67,870528037824088.6,1.5833801579623456e+16,3.9104794931263256e+16,8116849893264782.0
1410.4293198443174,1.4656107092737104e+17,2.250121092373164e+17,8101026659602312.0,77248777556262.25,965773554513270.2,1.7438907230228032e+16,4.293250988030874e+16,8935572207736809.0
1552.4722518287492,1.4854293790410195e+17,2.3404995810892717e+17,8210555407371025.0,85469833456844.89,1068198147671799.5,1.918960435785086e+16,4.711703031001557e+16,9836162148459252.0
1708.7194770116243,1.5023332840606813e+17,2.4342336911182646e+17,8303975091920202.0,94284693958440.42,1178028288982027.8,2.1098057130957548e+16,5.168888907120126e+16,1.0826806428738732e+16
1880.5914247127869,1.5165138798534227e+17,2.5320750757225277e+17,8382344020361624.0,103712817616934.64,1295513325774447.5,2.3177366492361456e+16,5.668067241470403e+16,1.1916510516092296e+16
2069.6505671840655,1.5282299281431056e+17,2.6348862115346083e+17,8447092411236735.0,113776092580673.86,1420931684405694.8,2.5441611101367748e+16,6.212703651833985e+16,1.3115180531219738e+16
2277.615623902472,1.5377893748886464e+17,2.7436222410538416e+17,8499922247355710.0,124498951876914.6,1554591805905357.8,2.790586932278065e+16,6.806469095826075e+16,1.4433713330339826e+16
2506.3771862927197,1.5455286638916822e+17,2.859309440068336e+17,8542692960353472.0,135907922270063.3,1696826217243621.2,3.058621462529466e+16,7.453234030612408e+16,1.5884095586379112e+16
2758.0149049219917,1.5517916535214013e+17,2.983022424581163e+17,8577304923864543.0,148030536016481.3,1847977880645052.0,3.34996772123727e+16,8.157057378608587e+16,1.7479512766991436e+16
3034.816395414191,1.556910317762964e+17,3.115862238726317e+17,8605592807917450.0,160893614795755.72,2008378922054309.5,3.666416605478236e+16,8.922169169794178e+16,1.9234468998843716e+16
3339.2980349556105,1.561189102719303e+17,3.2589371063980595e+17,8629239134035686.0,174521020783948.88,2178322876034529.0,4.009834670054925e+16,9.752945257190602e+16,2.1164918064566404e+16
3674.227838451172,1.5648939364874384e+17,3.413347084138603e+17,8649713545162719.0,188931010231803.56,2358032069089476.5,4.3821477014066296e+16,1.0653874919861514e+17,2.3288411927950784e+16
4042.6506222962894,1.568246870509826e+17,3.5801727323471635e+17,8668243196164201.0,204133448388994.94,2547623296263372.0,4.785318912170879e+16,1.1629514239571562e+17,2.5624254725492616e+16
4447.915684525919,1.5714251350558387e+17,3.760467490710365e+17,8685807536863014.0,220126992755504.8,2747073070670246.0,5.221323123592597e+16,1.2684431455856149e+17,2.8193682170676748e+16
4893.707252978511,1.5745643259325088e+17,3.9552524494423443e+17,8703155925054159.0,236896493141687.66,2956185499944965.0,5.6921155637062264e+16,1.3823136527791424e+17,3.1020053517865484e+16
5384.077978276362,1.5777640637221456e+17,4.1655119436244365e+17,8720838902930909.0,254410702261689.4,3174563947642303.0,6.199595288102759e+16,1.504999576469599e+17,3.412906390940662e+16
5923.485776103998,1.5810948082576563e+17,4.392188313416162e+17,8739245857350045.0,272620388172394.03,3401587626902051.5,6.745562450493827e+16,1.636912941711551e+17,3.7548977967332856e+16
6516.834353714399,1.5846046244580074e+17,4.636174422797757e+17,8758642410972790.0,291456900765931.6,3636393803296164.0,7.331668661693795e+16,1.7784291208339312e+17,4.131088801860945e+16
7169.5177890858395,1.5883252746738458e+17,4.89830272797485e+17,8779204091397504.0,310831282189084.2,3877866760013416.0,7.959359137704926e+16,1.9298725982537834e+17,4.5448991994072504e+16
7887.469567994424,1.5922766922409014e+17,5.179330724732333e+17,8801041053816326.0,330633900437253.56,4124633304421792.0,8.629807035861722e+16,2.091501135345175e+17,5.000091109733225e+16
8677.216524793868,1.5964704836447117e+17,5.479922320275344e+17,8824217435606485.0,350734843065431.5,4375067783936974.5,9.343838374595885e+16,2.2634875231899974e+17,5.50080275354962e+16
9545.938177273256,1.60091198823552e+17,5.800625687763096e+17,8848762739219076.0,370985094814546.44,4627306933017506.0,1.0101848696856842e+17,2.445899664652531e+17,6.051586175188507e+16
10501.531995000581,1.6056014179883818e+17,6.141848260162246e+17,8874678131065928.0,391218690740636.9,4879276934550815.0,1.0903712111678699e+17,2.6386790309733747e+17,6.657448624690436e+16
11552.68519450064,1.6105343039901104e+17,6.503829855659128e+17,8901938909130712.0,411255964438766.4,5128734177949434.0,1.1748684576053365e+17,2.8416179958189517e+17,7.323898077295338e+16
12708.953713950705,1.615701498338849e+17,6.886615216670205e+17,8930494513652651.0,430907970392391.4,5373320680096508.0,1.2635304229951229e+17,3.0543367332932224e+17,8.056993304016029e+16
13980.849085345777,1.6210889285062144e+17,7.290027553684932e+17,8960267169864650.0,449982074788380.75,5610634072676288.0,1.3561292735551765e+17,3.27626062361538e+17,8.863398948348632e+16
15379.933993880357,1.626677249990425e+17,7.713645030171511e+17,8991149968691186.0,468288592524139.4,5838310601270404.0,1.452346282802096e+17,3.506599394786034e+17,9.75044610968104e+16
16918.927393268394,1.6324415036904912e+17,8.15678249846185e+17,9023004973574854.0,485648208032214.1,6054117833308304.0,1.5517638607317014e+17,3.7443295254887635e+17,1.0726198984017258e+17
18611.820132595236,1.638350859154322e+17,8.618481169548023e+17,9055661801901858.0,501899767956930.3,6256051908569065.0,1.653859639296191e+17,3.988181719542298e+17,1.1799528167709272e+17
20474.00214585476,1.6443685109000317e+17,9.097509222449002e+17,9088917052377594.0,516907894622037.1,6442432437193182.0,1.7580035079260944e+17,4.236635500732334e+17,1.2980191290486362e+17
22522.40236044024,1.6504517877260563e+17,9.5923765638399e+17,9122534909442988.0,530569765903835.5,6611986871478270.0,1.8634585665527738e+17,4.4879231230179616e+17,1.4278921710748643e+17
24775.642596484264,1.6565525296926192e+17,1.0101366954014354e+18,9156249226897010.0,542820367468938.06,6763915696470787.0,1.9693869743690778e+17,4.740044989098523e+17,1.5707526079457542e+17
27254.206856132692,1.662617780442285e+17,1.0622590429721736e+18,9189767354117694.0,553635572820378.6,6897930416648224.0,2.0748615920432253e+17,4.990798557832983e+17,1.7278991659673907e+17
29980.627541745966,1.668590830806165e+17,1.1154058286610346e+18,9222775903497170.0,563032561210166.1,7014258258774510.0,2.178884114707551e+17,5.237822236102019e+17,1.9007604377598022e+17
32979.69029592056,1.6744126311529696e+17,1.169378175708571e+18,9254948555528908.0,571067342057577.4,7113610746854828.0,2.280410048935301e+17,5.478654942688013e+17,2.0909078678650214e+17
36278.65932551262,1.6800235635306906e+17,1.2239893891883843e+18,9285955852056902.0,577829492799739.0,7197117528792427.0,2.3783803867152598e+17,5.7108108759442746e+17,2.3000700369571123e+17
39907.525258063884,1.6853655303193904e+17,1.2790792045376796e+18,9315476738483080.0,583434586399816.2,7266231437127566.0,2.4717591803315674e+17,5.93186753253872e+17,2.530148374567021e+17
43899.277783870275,1.6903842753656794e+17,1.3345295884265892e+18,9343211390563834.0,588015117642351.2,7322614908000894.0,2.55957545911154e+17,6.139563292401418e+17,2.78323444322519e+17
48290.20556225731,1.6950318098031267e+17,1.3902813207137165e+18,9368894619582128.0,591710961260415.5,7368020660564518.0,2.6409671215515075e+17,6.331899062164023e+17,3.0616289512044326e+17
53120.22611848305,1.699268773459983e+17,1.4463503418572582e+18,9392308921454786.0,594660451268040.6,7404180226869523.0,2.715223689687453e+17,6.507236792689313e+17,3.367862666739899e+17
58433.24873033136,1.7030665312684723e+17,1.5028426689247872e+18,9413296061348594.0,596993034562762.6,7432712211664820.0,2.7818242618960326e+17,6.664386459156353e+17,3.7047194238512634e+17
64277.57360336451,1.7064087908139584e+17,1.5599666146590157e+18,9431766012023924.0,598824144080584.4,7455058319162508.0,2.84046679394594e+17,6.802672648229123e+17,4.075261428848474e+17
70706.33096370097,1.7092925428672378e+17,1.61804112964221e+18,9447702150920658.0,600252525246310.0,7472450053967791.0,2.8910851087697184e+17,6.921972530068465e+17,4.482857067415319e+17
77777.96406007107,1.7117281475101347e+17,1.6774993901534927e+18,9461161735729992.0,601359819855715.1,7485903652382939.0,2.933850875326621e+17,7.022718973466387e+17,4.931211653152078e+17
85556.76046607818,1.713738548599834e+17,1.7388871366814671e+18,9472271563186370.0,602211908113974.0,7496237017563500.0,2.9691591635458477e+17,7.105865545523397e+17,5.424400904256993e+17
94113.436512686,1.7153575289135405e+17,1.80285601667289e+18,9481218326599434.0,602861273389060.0,7504099495697862.0,2.997598032820964e+17,7.172814674447745e+17,5.966908139589797e+17
103525.78016395462,1.716627249843838e+17,1.8701527230509932e+18,9488235019841906.0,603349732086955.6,7510006278020272.0,3.0199045925491603e+17,7.22531448565945e+17,6.563664992157967e+17
113879.3581803501,1.7175952491844147e+17,1.9416054316834486e+18,9493584346743800.0,603710956474756.2,7514370280662911.0,3.0369118296500634e+17,7.265334346703514e+17,7.220096235457692e+17
125268.29399838512,1.718311233769116e+17,2.0181094706551631e+18,9497540996865332.0,603972475297577.2,7517527536971039.0,3.049491826592272e+17,7.294932145712786e+17,7.942169090386125e+17
137796.12339822366,1.7188240099985277e+17,2.1006143305939233e+18,9500374683272962.0,604157059430004.9,7519754903732727.0,3.058501476240865e+17,7.316127492701655e+17,8.736447460533807e+17
151576.73573804603,1.7191788767591418e+17,2.1901139377011113e+18,9502335735556132.0,604281641238450.0,7521256996223058.0,3.064736292686981e+17,7.330793875286372e+17,9.610151588548435e+17
166735.40931185064,1.7194156714502266e+17,2.2876417944526902e+18,9503644301990474.0,604364771864324.1,7522259295574225.0,3.0688964562324454e+17,7.340579457635268e+17,1.057122367551468e+18
183409.95024303574,1.7195677147477398e+17,2.3942714371058115e+18,9504484518230490.0,604418149117925.8,7522902855383049.0,3.0715671910287206e+17,7.346861350297761e+17,1.1628400059756552e+18
201751.94526733932,1.7196614513783344e+17,2.511122560485506e+18,9505002522232784.0,604451056868105.9,7523299615981382.0,3.0732131876390317e+17,7.350732823356859e+17,1.2791290610530025e+18
221928.13979407327,1.71971682444873e+17,2.639371918631394e+18,9505308522899846.0,604470496471632.4,7523533993701589.0,3.0741848968847674e+17,7.353018276865002e+17,1.4070466057984737e+18
244121.9537734806,1.7197481079137546e+17,2.7802679306275543e+18,9505481400455410.0,604481479032428.0,7523666407032791.0,3.074733144112425e+17,7.354307709099072e+17,1.547755405228506e+18
268535.1491508287,1.7197649867102576e+17,2.9351477325542175e+18,9505574675450914.0,604487404603681.8,7523737849732970.0,3.075028109718902e+17,7.355001405919863e+17,1.7025344823895288e+18
295389.6640659116,1.719773681872072e+17,3.105455553064543e+18,9505622726339868.0,604490457179127.8,7523774653629192.0,3.075179101026486e+17,7.355356465479386e+17,1.872790740389596e+18
324929.6304725028,1.71977797075724e+17,3.2927616197647483e+18,9505646427422030.0,604491962860756.9,7523792807131145.0,3.0752524809223514e+17,7.355528975228504e+17,2.060071745876533e+18
