t(s),Total solute volume 1,Total retention volume 1,Total 1 volume 1,Total 2 volume 1,Total 3 volume 1,Total 4 volume 1,Total 5 volume 1,Total 6 volume 1
1.0,2672264339004783.0,2676635531502327.0,4371192497536.0103,0.0,0.0,0.0,0.0,0.0
2.1,4106945221182663.5,4113685992227789.0,6717990794392.104,3268651.8870381434,16632699.854912546,356111250.25828886,7666753018.996435,14737485114.300701
3.3100000000000005,5261920980051619.0,5270589436490299.0,8607257727257.056,8792585.18388875,44741489.90001255,958019442.9191782,20621187263.8391,39565970658.71192
4.641000000000001,6294635946365522.0,6305047773365480.0,10296534959483.314,16574679.134617701,84341022.85587059,1806144244.4592881,38872611222.77024,74512369305.35355
6.105100000000002,7263834740886603.0,7275903093207510.0,11881914778808.332,26810626.675637435,136427092.07151508,2921938760.80832,62882884670.26644,120469480948.18353
7.7156100000000025,8199059510933176.0,8212747950457393.0,13411721142018.885,39797656.21244641,202512157.68440017,4337959006.738356,93352622983.72752,178785490380.65857
9.487171000000004,9117868146029074.0,9133171606678342.0,14914674598523.566,55914265.807904646,284522223.58687013,6095671178.818897,131174091276.88472,251175851793.72064
11.435888100000005,1.0031930448248352e+16,1.0048866158975012e+16,16409864181173.559,75617885.55067198,384784942.4370372,8245215070.355357,177426140367.67108,339714787186.7541
13.579476910000007,1.0949673467177162e+16,1.0968276237016492e+16,17911074547645.246,99449599.88240013,506053645.3987632,10845941177.074337,233385758671.03186,446858088638.43164
15.937424601000009,1.187759400352549e+16,1.1897913715112044e+16,19428932925325.41,128042775.3097848,651551244.3536388,13967379258.855251,300548862660.4787,575482825323.1385
18.53116706110001,1.2820974604985492e+16,1.2843074959087126e+16,20972080310641.24,162134534.11940086,825028615.6346126,17690524520.540867,380657832680.9034,728938270636.0216
21.384283767210015,1.378430121651531e+16,1.3808259253818528e+16,22547854645486.332,202579725.34435955,1030835690.2353935,22109405270.832844,475734941412.31793,911104895687.5583
24.522712143931017,1.4771516023046072e+16,1.479742216515049e+16,24162704407273.184,250367298.3347056,1274004768.322079,27332924026.682926,588121401885.9238,1126458999160.0708
27.97498335832412,1.5786168338847564e+16,1.5814126790942504e+16,25822435427317.73,306639027.99692005,1560345798.262683,33486969416.104496,720521869791.5786,1380140843578.9514
31.772481694156536,1.6831492520277426e+16,1.6861621923174428e+16,27532338336748.617,372710439.3136787,1896552844.2235198,40716786031.44441,876054032315.5557,1678024478613.691
35.949729863572195,1.7910424566825022e+16,1.7942858802691402e+16,29297215721143.46,450093548.5740234,2290319795.323191,49189565371.020805,1058302441219.8575,2026787725328.4592
40.544702849929415,1.9025560806354372e+16,1.9060449864934556e+16,31121314538960.875,540520696.2866265,2750461627.053867,59097184900.90052,1271375030861.3945,2433980843146.962
45.59917313492236,2.017905990530521e+16,2.0216570715013028e+16,33008165833487.348,645968330.0441765,3287035405.629322,70658978108.02501,1519959877665.9697,2908092014722.7305
51.1590904484146,2.1372491847547444e+16,2.1412808975573324e+16,34960337698584.375,768679168.4265866,3911453052.5421553,84124373037.35948,1809378842336.3972,3458606979724.9253
57.27499949325607,2.260664295570652e+16,2.264996908815049e+16,36979116340843.0,911180818.0027677,4636576059.974375,99775198686.00119,2145633965412.069,4096059182214.8433
64.00249944258168,2.38812926127823e+16,2.3927848742245784e+16,39064140850563.5,1076298697.6887193,5476781239.63478,117927435675.60204,2535442029891.4497,4832066067395.07
71.40274938683986,2.5194983090705864e+16,2.524500836446845e+16,41213026697646.445,1267161095.327269,6447986438.20954,138932184966.51416,2986252675681.912,5679347056731.142
79.54302432552385,2.6544807190985344e+16,2.6598558405168904e+16,43421018364044.43,1487194351.32025,7567626017.650652,163175647209.92328,3506245881245.8657,6651719470685.455
88.49732675807624,2.792623844628649e+16,2.7983989206224696e+16,45680711595892.87,1740106513.354375,8854567675.662495,191077943465.98715,4104305474267.8345,7764070250416.1455
98.34705943388387,2.9333025588476696e+16,2.939506518880548e+16,47981880780309.04,2029858302.7191036,10328964708.137604,223090661939.205,4789966517018.381,9032303546500.86
109.18176537727226,3.0757167818740588e+16,3.082379992565063e+16,50311438495081.61,2360620857.562241,12012040994.918987,259693083012.63193,5573335876766.812,10473266793315.363
121.09994191499949,3.2188981434739064e+16,3.226052267644862e+16,52653544496574.06,2736720485.0308824,13925809891.016872,301387117669.17566,6464987048831.793,12104660516049.352
134.20993610649944,3.3617262731786852e+16,3.369404132253252e+16,54989872188723.68,3162571610.123759,16092733068.958948,348691097695.0947,7475832439883.166,13944939714720.697
148.6309297171494,3.502954738386099e+16,3.5111901923650588e+16,57300032909659.7,3642600314.538699,18535331491.024395,402132686830.5821,8616978969324.809,16013217291916.287
164.49402268886433,3.641246258626039e+16,3.650074119535113e+16,59562151953734.445,4181162344.333963,21275768247.823677,462241344326.58966,9899576082151.355,18329182779869.168
181.94342495775078,3.7752164382722856e+16,3.784672434716966e+16,61753583934348.625,4782461178.81257,24335431717.35682,529540961645.7437,11334668996671.154,20913052661204.74
201.13776745352587,3.903484787559655e+16,3.913605599710195e+16,63851747365297.055,5450473514.76733,27734556461.00181,604543491154.6676,12933073877633.455,23785571741336.223
222.25154419887846,4.0247311755209464e+16,4.035554561152515e+16,65835048094551.05,6188891002.794671,31491926814.758526,687744558480.4136,14705294958696.965,26968087886162.85
245.47669861876633,4.137755075893423e+16,4.1493201085025976e+16,67683848423598.74,7001087821.631301,35624711944.99944,779622149495.4199,16661505488565.887,30482724230277.28
271.024368480643,4.2415341096212456e+16,4.2538815485298024e+16,69381424720162.08,7890123178.081437,40148478601.4681,880639432959.7914,18811613644831.703,34352672685834.48
299.1268053287073,4.33527761494016e+16,4.3484504241244296e+16,70914843693678.17,8858785609.975876,45077416555.223335,991252568899.9006,21165430222850.305,38602629155136.91
330.03948586157804,4.418470497571015e+16,4.432514524343474e+16,72275679676545.39,9909681776.320246,50424790374.7754,1111923927880.286,23732946300723.07,43259383347249.195
364.0434344477359,4.490902643768212e+16,4.5058674603215976e+16,73460495748488.22,11045366315.967052,56203600144.24438,1243140509622.8564,26524716227528.99,48352564081739.91
401.44777789250946,4.552679884326368e+16,4.568619784882254e+16,74471023079326.9,12268501888.639282,62427395734.79914,1385436552380.3794,29552325174404.57,53915524855130.81
442.5925556817604,4.6042139432295544e+16,4.621189077959755e+16,75313996511603.1,13582030745.994577,69111149728.37538,1539418474423.4954,32828903243945.53,59986335891574.43
487.8518112499365,4.646190910835878e+16,4.664268526197845e+16,76000638856910.45,14989332621.415707,76272060721.48235,1705789542436.4177,36369632883904.03,66608830943046.65
537.6369923749302,4.6795203037452904e+16,4.6987760491523976e+16,76545827637697.39,16494340068.887022,83930140123.17421,1885371199348.3027,40192186768796.95,73833643985051.58
592.4006916124232,4.705269318737456e+16,4.725788573509244e+16,76967019640189.4,18101583089.951904,92108439165.5316,2079117968401.4568,44317032757070.8,81719167330028.69
652.6407607736655,4.724588977058364e+16,4.746468151093326e+16,77283042813267.75,19816140704.13179,100832802436.89575,2288123371320.103,48767552949233.59,90332372272702.12
718.9048368510321,4.738640026744127e+16,4.761987794365419e+16,77512884209565.5,21643487631.41574,110131087737.77568,2513615326422.904,53569944775731.63,99749457325916.55
791.7953205361354,4.74852640730556e+16,4.773464846128103e+16,77674601628585.61,23589237742.879196,120031860682.71965,2756940855429.397,58752899999406.445,110056324643663.78
871.9748525897489,4.75524271917289e+16,4.7819083430894424e+16,77784464343882.47,25658799623.899662,130562642118.53877,3019541333382.2188,64347086547578.375,121348925498892.78
960.1723378487239,4.759639720526275e+16,4.788184415165042e+16,77856388714747.4,27856970363.964344,141747841226.07678,3302920622778.0254,70384481102496.55,133733551135966.52
1057.1895716335964,4.7624089035106024e+16,4.793000790190039e+16,77901685890560.92,30187499044.55708,153606534433.48,3608608952593.8403,76897611327054.78,147327166590661.0
1163.9085287969563,4.764084325287308e+16,4.7969085921709064e+16,77929091762642.52,32652650371.958256,166150245057.0921,3938125201711.4253,83918762610985.67,162257886365219.66
1281.299381676652,4.7650576470265384e+16,4.800317469023368e+16,77945012966146.14,35252792180.510574,179380844550.9784,4292939535895.058,91479225002904.61,178666408826559.2
1410.4293198443174,4.765601549154494e+16,4.803518721550683e+16,77953909897245.66,37986023690.30151,193288660237.2556,4674436141888.168,99608348344015.88,196703754894811.62
1552.4722518287492,4.765895649953863e+16,4.806711873138743e+16,77958720679210.72,40847844954.79576,207850794523.30084,5083877643112.981,108333045158769.9,216537889728231.84
1708.7194770116243,4.766052085898864e+16,4.810029935414467e+16,77961279595148.42,43830878030.50504,223029705184.44833,5522366565137.974,117676773287775.83,238351215124814.53
1880.5914247127869,4.7661369501641304e+16,4.813561086632664e+16,77962667770487.23,46924633022.4174,238772015158.00348,5990804403328.05,127658718200701.44,262343477662619.8
2069.6505671840655,4.76618698296422e+16,4.81736548203902e+16,77963486186801.73,50115329039.50933,255007601475.15854,6489845614224.906,138292810003198.19,288733726013270.9
2277.615623902472,4.7662214103647176e+16,4.821487209613744e+16,77964049336299.06,53385782817.72299,271649028513.55048,7019845700431.712,149586614586766.5,317762448055458.9
2506.3771862927197,4.7662496808717256e+16,4.8259621410297944e+16,77964511773822.39,56715386547.22193,288591435160.7584,7580803291802.709,161540097253927.1,349693882439395.1
2758.0149049219917,4.766276136991032e+16,4.830822719771426e+16,77964944532325.12,60080202524.092514,305713016432.3181,8172297104572.394,174144277759285.78,384818515188784.4
3034.816395414191,4.766302625333535e+16,4.8361006980101224e+16,77965377817921.73,63453204809.74169,322876253128.88574,8793419605933.482,187379815688160.97,423455784195971.2
3339.2980349556105,4.766329846535629e+16,4.841828633919214e+16,77965823091339.44,66804696185.993195,339930033472.9894,9442710097781.889,201215583888788.38,465957022028258.56
3674.227838451172,4.766358001243559e+16,4.848040717944195e+16,77966283634667.86,70102921925.59117,356712776225.84033,10118090779735.906,215607305688272.25,512708671205615.94
4042.6506222962894,4.766387075779011e+16,4.854773285570125e+16,77966759224163.45,73314890158.17444,373056605048.6484,10816810180963.037,230496349315166.4,564135807695609.1
4447.915684525919,4.76641695868176e+16,4.862065223338524e+16,77967248036604.08,76407392068.28862,388792539692.88666,11535399153615.43,245808790100980.78,620706009344558.0
4893.707252978511,4.766447484655309e+16,4.869958381770507e+16,77967747368136.89,79348194394.20839,403756563929.0158,12269645338815.514,261454866366453.75,682933607320302.8
5384.077978276362,4.766478450367245e+16,4.878498058062951e+16,77968253892732.05,82107352961.30492,417796309349.5541,13014592538413.043,277328966049744.5,751384360813960.9
5923.485776103998,4.766509620881703e+16,4.8877335863834584e+16,77968763767404.61,84658571466.70355,430777969429.7932,13764571597771.201,293310284812926.25,826680598298499.0
6516.834353714399,4.76654073406458e+16,4.897719061698079e+16,77969272704270.34,86980507644.61502,442592945839.88605,14513269042928.348,309264288657973.9,909506872476239.5
7169.5177890858395,4.766571505653559e+16,4.908514216422514e+16,77969776053480.84,89057913354.15974,453163649685.9295,15253838627019.635,325045090892460.4,1000616180553560.2
7887.469567994424,4.766601635917442e+16,4.920185463490327e+16,77970268912154.83,90882490466.85266,462447856622.0437,15979058953073.143,340498810929018.8,1100836806587522.0
8677.216524793868,4.766630818143211e+16,4.932807112624927e+16,77970746263204.66,92453354613.84384,470441066590.29114,16681537339543.154,355467918460376.9,1211079848332907.8
9545.938177273256,4.766658748852487e+16,4.946462757942601e+16,77971203142453.9,93777026202.53589,477176458111.00415,17353956075778.78,369796480908219.3,1332347497290190.5
10501.531995000581,4.766685139400467e+16,4.961246824592262e+16,77971634828367.23,94866912195.95027,482722251362.48303,17989352333989.473,383336128043920.7,1465742147548070.0
11552.68519450064,4.76670972837657e+16,4.977266250705372e+16,77972037044896.12,95742298938.33798,487176583260.7272,18581417629934.31,395952433159138.4,1612476416571814.2
12708.953713950705,4.766732294006542e+16,4.994642269832403e+16,77972406164347.19,96426938042.92682,490660311869.93335,19124797461688.02,407531298019633.3,1773884169363037.5
13980.849085345777,4.766752665576252e+16,5.013512250156202e+16,77972739394247.5,96947363426.19034,493308452774.2899,19615367431404.375,417984836688179.1,1951432646469490.0
15379.933993880357,4.766770732798114e+16,5.0340315422994264e+16,77973034930557.81,97331116546.67624,495261148355.8938,20050459740303.19,427256201849245.2,2146735806228053.8
16918.927393268394,4.766786452059721e+16,5.056375289679464e+16,77973292059883.06,97605069363.36133,496655134309.57874,20429014406330.633,435322807054295.06,2361569002473262.5
18611.820132595236,4.7667998486622e+16,5.08074016579163e+16,77973511196089.92,97794015967.4864,497616573279.5773,20751633623979.38,442197485034644.06,2597885130850334.5
20474.00214585476,4.766811014483673e+16,5.107346022109416e+16,77973693842082.88,97919656662.9951,498255885437.398,21020525619025.805,447927291277308.9,2857832389976878.5
22522.40236044024,4.766820100971276e+16,5.1364374574462424e+16,77973842475172.89,98000031900.31006,498664868100.3071,21239335682768.02,452589903526793.25,3143773818164948.5
24775.642596484264,4.76682730792079e+16,5.1682853516883544e+16,77973960363539.12,98049392237.71837,498916034039.56793,21412875495965.9,456287853959540.9,3458308782430277.5
27254.206856132692,4.766832869059483e+16,5.203188439104149e+16,77974051330397.4,98078429740.45778,499063788934.18616,21546775300126.562,459141117326606.75,3804296614270833.5
29980.627541745966,4.766837035901719e+16,5.241475023267161e+16,77974119489917.94,98094757825.18353,499146873018.36597,21647094425464.77,461278811727925.0,4184882606380279.5
32979.69029592056,4.7668400615982536e+16,5.2835049515352296e+16,77974168983038.38,98103515669.9781,499191436570.575,21719931728369.293,462830897461701.1,4603526606244407.0
36278.65932551262,4.766842186549347e+16,5.329671966110036e+16,77974203742129.1,98107987415.27824,499191659084.3421,21771076983691.527,463920748578152.94,5064034466656411.0
39907.525258063884,4.766843626732027e+16,5.3804065485494296e+16,77974227300055.27,98108017055.9851,499191809892.734,21805736918836.312,464659314970445.75,5570592639157711.0
43899.277783870275,4.76684456680555e+16,5.436179311237143e+16,77974242677397.7,98108036403.83849,499191908332.3112,21828356692108.1,465141318277373.9,6127806226724291.0
48290.20556225731,4.766845156490355e+16,5.4975050089961144e+16,77974252323223.38,98108048540.26701,499191970081.01794,21842541885348.324,465443589638446.25,6740740841191932.0
53120.22611848305,4.766845511169879e+16,5.564947172415176e+16,77974258124927.53,98108055840.00192,499192007221.20087,21851070966479.59,465625335263401.2,7414968648035039.0
58433.24873033136,4.766845715281029e+16,5.639123358162604e+16,77974261463695.2,98108060040.857,499192028594.6518,21855976789568.812,465729873116337.94,8156619017357501.0
64277.57360336451,4.766845827432394e+16,5.7207110013630664e+16,77974263298221.83,98108062349.06796,499192040338.55597,21858670062389.273,465787263881310.56,8972434241962223.0
70706.33096370097,4.766845888427752e+16,5.810453722018041e+16,77974264295959.31,98108063604.42647,499192046725.6699,21858670341441.617,465817268391175.06,9869830832764012.0
77777.96406007107,4.766845938363415e+16,5.909167385637397e+16,77974265112786.77,98108064632.16324,499192051954.6728,21858670569882.613,465817273149596.5,1.0856966963790886e+16
85556.76046607818,4.76684593957822e+16,6.01775233906067e+16,77974265132657.98,98108064657.16502,499192052081.8786,21858670575439.934,465817273265312.3,1.1942816485734444e+16
94113.436512686,4.766845939795218e+16,6.137195770537726e+16,77974265136207.53,98108064661.63136,499192052104.60284,21858670576432.656,465817273285982.94,1.3137250798309628e+16
103525.78016395462,4.76684594001604e+16,6.26858352554825e+16,77974265139819.62,98108064666.1761,499192052127.72626,21858670577442.902,465817273307017.3,1.4451128346181034e+16
113879.3581803501,4.766845940258715e+16,6.413110032345889e+16,77974265143789.19,98108064671.17041,499192052153.1369,21858670578552.996,465817273330132.44,1.5896393411702476e+16
125268.29399838512,4.766845940525642e+16,6.572089161129645e+16,77974265148155.5,98108064676.66429,499192052181.0881,21858670579774.098,465817273355559.56,1.7486184696839696e+16
137796.12339822366,4.7668459408192616e+16,6.74696616807248e+16,77974265152958.31,98108064682.70726,499192052211.8344,21858670581117.3,465817273383527.6,1.9234954763297676e+16
151576.73573804603,4.76684594114224e+16,6.939330833699263e+16,77974265158241.7,98108064689.3548,499192052245.6556,21858670582594.88,465817273414293.56,2.1158601416298124e+16
166735.40931185064,4.766845941497514e+16,7.150931915056226e+16,77974265164053.19,98108064696.66672,499192052282.8592,21858670584220.184,465817273448135.9,2.3274612226273604e+16
183409.95024303574,4.76684594188833e+16,7.38369304304158e+16,77974265170445.94,98108064704.71013,499192052323.78217,21858670586008.03,465817273485362.94,2.5602223502173624e+16
201751.94526733932,4.766845942318218e+16,7.639730209401654e+16,77974265177477.84,98108064713.55771,499192052368.7978,21858670587974.668,465817273526311.44,2.816259516142543e+16
221928.13979407327,4.766845942791096e+16,7.921371002344949e+16,77974265185213.06,98108064723.2901,499192052418.3149,21858670590137.945,465817273571356.1,3.0979003086074572e+16
244121.9537734806,4.766845943311272e+16,8.231175765618723e+16,77974265193721.69,98108064733.99591,499192052472.7851,21858670592517.574,465817273620904.75,3.407705071355026e+16
268535.1491508287,4.7668459438834456e+16,8.571960873373704e+16,77974265203081.2,98108064745.77199,499192052532.70123,21858670595135.105,465817273675408.3,3.748490178531154e+16
295389.6640659116,4.766845944512845e+16,8.946824332370334e+16,77974265213376.62,98108064758.72592,499192052598.6077,21858670598014.445,465817273735361.8,4.123353636891085e+16
324929.6304725028,4.7668459452051896e+16,9.359173944230821e+16,77974265224701.72,98108064772.97502,499192052671.1074,21858670601181.68,465817273801311.44,4.535703248051159e+16
357423.5935197531,4.7668459459667704e+16,9.812758283704093e+16,77974265237159.2,98108064788.64919,499192052750.85443,21858670604665.656,465817273873854.75,4.989287586753995e+16
393166.95287172846,4.766845946804504e+16,1.0311700774501235e+17,77974265250862.53,98108064805.89073,499192052838.57733,21858670608498.035,465817273953652.5,5.488230076703659e+16
432484.6481589014,4.766845947726002e+16,1.0860537172403896e+17,77974265265936.11,98108064824.85654,499192052935.07263,21858670612713.66,465817274041431.3,6.037066473674108e+16
475734.11297479155,4.766845948739653e+16,1.146425679630839e+17,77974265282517.2,98108064845.71857,499192053041.21704,21858670617350.848,465817274137986.1,6.640786096553136e+16
523308.52427227073,4.766845949854671e+16,1.2128347881919627e+17,77974265300756.02,98108064868.66708,499192053157.9761,21858670622451.707,465817274244197.6,7.304877181036406e+16
575640.3766994978,4.7668459510811944e+16,1.285884747026526e+17,77974265320818.94,98108064893.9104,499192053286.4104,21858670628062.7,465817274361030.75,8.035376768141246e+16
