t(s),Total solute volume 1,Total retention volume 1,Total 1 volume 1,Total 2 volume 1,Total 3 volume 1,Total 4 volume 1,Total 5 volume 1,Total 6 volume 1
1.0,2548049688294564.5,2551265381540588.0,3215693246039.0884,0.0,0.0,0.0,0.0,0.0
2.1,3916058487172733.5,3921000636628852.0,4942149456118.05,0.0,0.0,0.0,0.0,0.0
3.3100000000000005,5017370940090460.0,5023702969295984.0,6332029205525.348,0.0,0.0,0.0,0.0,0.0
4.641000000000001,6002114098040735.0,6009688894072315.0,7574796031589.998,0.0,0.0,0.0,0.0,0.0
6.105100000000002,6926302926694432.0,6935044068704388.0,8741142009959.48,0.0,0.0,0.0,0.0,0.0
7.7156100000000025,7818107605530282.0,7827974224035317.0,9866618505026.74,0.0,0.0,0.0,0.0,0.0
9.487171000000004,8694271381431989.0,8705243737281836.0,10972355849839.342,0.0,0.0,0.0,0.0,0.0
11.435888100000005,9565923313159134.0,9577995712312048.0,12072399152899.535,0.0,0.0,0.0,0.0,0.0
13.579476910000007,1.044110042316449e+16,1.045427731447172e+16,13176891307184.078,0.0,0.0,0.0,0.0,0.0
15.937424601000009,1.1325998502736734e+16,1.134029215426935e+16,14293651532624.887,0.0,0.0,0.0,0.0,0.0
18.53116706110001,1.2225653030217444e+16,1.2241082064926572e+16,15429034709097.293,0.0,0.0,0.0,0.0,0.0
21.384283767210015,1.3144333394566298e+16,1.3160921823460852e+16,16588428894558.234,0.0,0.0,0.0,0.0,0.0
24.522712143931017,1.4085776156911116e+16,1.4103552706616744e+16,17776549705617.26,0.0,0.0,0.0,0.0,0.0
27.97498335832412,1.5053315461729156e+16,1.5072313066627874e+16,18997604898734.996,0.0,0.0,0.0,0.0,0.0
31.772481694156536,1.6049936804593812e+16,1.6070192166819688e+16,20255362225851.28,0.0,0.0,0.0,0.0,0.0
35.949729863572195,1.70782651223917e+16,1.7099818256795436e+16,21553134403742.08,0.0,0.0,0.0,0.0,0.0
40.544702849929415,1.8140492348426916e+16,1.8163386036113948e+16,22893687687020.848,0.0,0.0,0.0,0.0,0.0
45.59917313492236,1.9238249890253596e+16,1.92625289711863e+16,24279080932730.074,0.0,0.0,0.0,0.0,0.0
51.1590904484146,2.037243568423104e+16,2.0398146131571148e+16,25710447340066.742,0.0,0.0,0.0,0.0,0.0
57.27499949325607,2.1543011343534108e+16,2.1570199081981736e+16,27187738447646.945,0.0,0.0,0.0,0.0,0.0
64.00249944258168,2.274879026512103e+16,2.2777499721841948e+16,28709456720955.555,0.0,0.0,0.0,0.0,0.0
71.40274938683986,2.3987240655806376e+16,2.4017513062774492e+16,30272406968123.96,0.0,0.0,0.0,0.0,0.0
79.54302432552385,2.5254327391855496e+16,2.528619888861992e+16,31871496764470.07,0.0,0.0,0.0,0.0,0.0
88.49732675807624,2.654441356188692e+16,2.6577913174085548e+16,33499612198610.22,0.0,0.0,0.0,0.0,0.0
98.34705943388387,2.785023740001199e+16,2.7885384988774628e+16,35147588762564.78,0.0,0.0,0.0,0.0,0.0
109.18176537727226,2.916297440797994e+16,2.9199778697731936e+16,36804289752053.47,0.0,0.0,0.0,0.0,0.0
121.09994191499949,3.0472388952114332e+16,3.0510845749700024e+16,38456797585674.65,0.0,0.0,0.0,0.0,0.0
134.20993610649944,3.1767075102356308e+16,3.180716582010557e+16,40090717749246.445,0.0,0.0,0.0,0.0,0.0
148.6309297171494,3.3034782839407372e+16,3.3076473429883564e+16,41690590476163.24,0.0,0.0,0.0,0.0,0.0
164.49402268886433,3.4262822294884788e+16,3.430606269579147e+16,43240400906664.93,0.0,0.0,0.0,0.0,0.0
181.94342495775078,3.543853449644376e+16,3.5483258669621012e+16,44724173177341.08,0.0,0.0,0.0,0.0,0.0
201.13776745352587,3.654981148828432e+16,3.659593811510728e+16,46126626822965.16,0.0,0.0,0.0,0.0,0.0
222.25154419887846,3.758564162275678e+16,3.7633075487701224e+16,47433864944383.9,0.0,0.0,0.0,0.0,0.0
245.47669861876633,3.853664800161815e+16,3.858528205534892e+16,48634053730822.41,0.0,0.0,0.0,0.0,0.0
271.024368480643,3.93955809563001e+16,3.944529900027837e+16,49718043978319.58,0.0,0.0,0.0,0.0,0.0
299.1268053287073,4.015772103594356e+16,4.020840091561075e+16,50679879667143.695,0.0,0.0,0.0,0.0,0.0
330.03948586157804,4.082114921137389e+16,4.087266635033719e+16,51517138963220.14,0.0,0.0,0.0,0.0,0.0
364.0434344477359,4.138684745006722e+16,4.143907851121179e+16,52231061144667.414,0.0,0.0,0.0,0.0,0.0
401.44777789250946,4.185860608170728e+16,4.191143251140193e+16,52826429694623.13,0.0,0.0,0.0,0.0,0.0
442.5925556817604,4.224273373041685e+16,4.229604493664657e+16,53311206229746.48,0.0,0.0,0.0,0.0,0.0
487.8518112499365,4.254758878991615e+16,4.260128472913281e+16,53695939216590.75,0.0,0.0,0.0,0.0,0.0
537.6369923749302,4.278297484281906e+16,4.283696784378165e+16,53993000962565.25,0.0,0.0,0.0,0.0,0.0
592.4006916124232,4.295946165732273e+16,4.301367738805182e+16,54215730729041.79,0.0,0.0,0.0,0.0,0.0
652.6407607736655,4.308770418092432e+16,4.314208175619212e+16,54377575267702.086,0.0,0.0,0.0,0.0,0.0
718.9048368510321,4.3177831359855624e+16,4.323232267736099e+16,54491317505396.94,0.0,0.0,0.0,0.0,0.0
791.7953205361354,4.323896405175093e+16,4.32935325198921e+16,54568468141037.48,0.0,0.0,0.0,0.0,0.0
871.9748525897489,4.327889898441214e+16,4.333351785120794e+16,54618866795754.89,0.0,0.0,0.0,0.0,0.0
960.1723378487239,4.330396832331854e+16,4.3358618828103064e+16,54650504784585.53,0.0,0.0,0.0,0.0,0.0
1057.1895716335964,4.330396832331854e+16,4.3358618828103064e+16,54650504784585.53,0.0,0.0,0.0,0.0,0.0
1163.9085287969563,4.330396832331854e+16,4.3358618828103064e+16,54650504784585.53,0.0,0.0,0.0,0.0,0.0
1281.299381676652,4.330396832331854e+16,4.3358618828103064e+16,54650504784585.53,0.0,0.0,0.0,0.0,0.0
1410.4293198443174,4.330396832331854e+16,4.3358618828103064e+16,54650504784585.53,0.0,0.0,0.0,0.0,0.0
1552.4722518287492,4.330396832331854e+16,4.3358618828103064e+16,54650504784585.53,0.0,0.0,0.0,0.0,0.0
1708.7194770116243,4.330396832331854e+16,4.3358618828103064e+16,54650504784585.53,0.0,0.0,0.0,0.0,0.0
1880.5914247127869,4.330396832331854e+16,4.3358618828103064e+16,54650504784585.53,0.0,0.0,0.0,0.0,0.0
2069.6505671840655,4.330396832331854e+16,4.3358618828103064e+16,54650504784585.53,0.0,0.0,0.0,0.0,0.0
2277.615623902472,4.330396832331854e+16,4.3358618828103064e+16,54650504784585.53,0.0,0.0,0.0,0.0,0.0
2506.3771862927197,4.330396832331854e+16,4.3358618828103064e+16,54650504784585.53,0.0,0.0,0.0,0.0,0.0
2758.0149049219917,4.330396832331854e+16,4.3358618828103064e+16,54650504784585.53,0.0,0.0,0.0,0.0,0.0
3034.816395414191,4.330396832331854e+16,4.3358618828103064e+16,54650504784585.53,0.0,0.0,0.0,0.0,0.0
3339.2980349556105,4.330396832331854e+16,4.3358618828103064e+16,54650504784585.53,0.0,0.0,0.0,0.0,0.0
3674.227838451172,4.330396832331854e+16,4.3358618828103064e+16,54650504784585.53,0.0,0.0,0.0,0.0,0.0
4042.6506222962894,4.330396832331854e+16,4.3358618828103064e+16,54650504784585.53,0.0,0.0,0.0,0.0,0.0
4447.915684525919,4.330396832331854e+16,4.3358618828103064e+16,54650504784585.53,0.0,0.0,0.0,0.0,0.0
4893.707252978511,4.330396832331854e+16,4.3358618828103064e+16,54650504784585.53,0.0,0.0,0.0,0.0,0.0
5384.077978276362,4.330396832331854e+16,4.3358618828103064e+16,54650504784585.53,0.0,0.0,0.0,0.0,0.0
5923.485776103998,4.330396832331854e+16,4.3358618828103064e+16,54650504784585.53,0.0,0.0,0.0,0.0,0.0
6516.834353714399,4.330396832331854e+16,4.3358618828103064e+16,54650504784585.53,0.0,0.0,0.0,0.0,0.0
7169.5177890858395,4.330396832331854e+16,4.3358618828103064e+16,54650504784585.53,0.0,0.0,0.0,0.0,0.0
7887.469567994424,4.330396832331854e+16,4.3358618828103064e+16,54650504784585.53,0.0,0.0,0.0,0.0,0.0
8677.216524793868,4.330396832331854e+16,4.3358618828103064e+16,54650504784585.53,0.0,0.0,0.0,0.0,0.0
9545.938177273256,4.330396832331854e+16,4.3358618828103064e+16,54650504784585.53,0.0,0.0,0.0,0.0,0.0
10501.531995000581,4.330396832331854e+16,4.3358618828103064e+16,54650504784585.53,0.0,0.0,0.0,0.0,0.0
11552.68519450064,4.330396832331854e+16,4.3358618828103064e+16,54650504784585.53,0.0,0.0,0.0,0.0,0.0
12708.953713950705,4.330396832331854e+16,4.3358618828103064e+16,54650504784585.53,0.0,0.0,0.0,0.0,0.0
13980.849085345777,4.330396832331854e+16,4.3358618828103064e+16,54650504784585.53,0.0,0.0,0.0,0.0,0.0
15379.933993880357,4.330396832331854e+16,4.3358618828103064e+16,54650504784585.53,0.0,0.0,0.0,0.0,0.0
16918.927393268394,4.330396832331854e+16,4.3358618828103064e+16,54650504784585.53,0.0,0.0,0.0,0.0,0.0
18611.820132595236,4.330396832331854e+16,4.3358618828103064e+16,54650504784585.53,0.0,0.0,0.0,0.0,0.0
20474.00214585476,4.330396832331854e+16,4.3358618828103064e+16,54650504784585.53,0.0,0.0,0.0,0.0,0.0
22522.40236044024,4.330396832331854e+16,4.3358618828103064e+16,54650504784585.53,0.0,0.0,0.0,0.0,0.0
24775.642596484264,4.330396832331854e+16,4.3358618828103064e+16,54650504784585.53,0.0,0.0,0.0,0.0,0.0
27254.206856132692,4.330396832331854e+16,4.3358618828103064e+16,54650504784585.53,0.0,0.0,0.0,0.0,0.0
29980.627541745966,4.330396832331854e+16,4.3358618828103064e+16,54650504784585.53,0.0,0.0,0.0,0.0,0.0
32979.69029592056,4.330396832331854e+16,4.3358618828103064e+16,54650504784585.53,0.0,0.0,0.0,0.0,0.0
36278.65932551262,4.330396832331854e+16,4.3358618828103064e+16,54650504784585.53,0.0,0.0,0.0,0.0,0.0
39907.525258063884,4.330396832331854e+16,4.3358618828103064e+16,54650504784585.53,0.0,0.0,0.0,0.0,0.0
43899.277783870275,4.330396832331854e+16,4.3358618828103064e+16,54650504784585.53,0.0,0.0,0.0,0.0,0.0
48290.20556225731,4.330396832331854e+16,4.3358618828103064e+16,54650504784585.53,0.0,0.0,0.0,0.0,0.0
53120.22611848305,4.330396832331854e+16,4.3358618828103064e+16,54650504784585.53,0.0,0.0,0.0,0.0,0.0
58433.24873033136,4.330396832331854e+16,4.3358618828103064e+16,54650504784585.53,0.0,0.0,0.0,0.0,0.0
64277.57360336451,4.330396832331854e+16,4.3358618828103064e+16,54650504784585.53,0.0,0.0,0.0,0.0,0.0
70706.33096370097,4.330396832331854e+16,4.3358618828103064e+16,54650504784585.53,0.0,0.0,0.0,0.0,0.0
77777.96406007107,4.330396832331854e+16,4.3358618828103064e+16,54650504784585.53,0.0,0.0,0.0,0.0,0.0
85556.76046607818,4.330396832331854e+16,4.3358618828103064e+16,54650504784585.53,0.0,0.0,0.0,0.0,0.0
94113.436512686,4.330396832331854e+16,4.3358618828103064e+16,54650504784585.53,0.0,0.0,0.0,0.0,0.0
103525.78016395462,4.330396832331854e+16,4.3358618828103064e+16,54650504784585.53,0.0,0.0,0.0,0.0,0.0
113879.3581803501,4.330396832331854e+16,4.3358618828103064e+16,54650504784585.53,0.0,0.0,0.0,0.0,0.0
125268.29399838512,4.330396832331854e+16,4.3358618828103064e+16,54650504784585.53,0.0,0.0,0.0,0.0,0.0
137796.12339822366,4.330396832331854e+16,4.3358618828103064e+16,54650504784585.53,0.0,0.0,0.0,0.0,0.0
151576.73573804603,4.330396832331854e+16,4.3358618828103064e+16,54650504784585.53,0.0,0.0,0.0,0.0,0.0
166735.40931185064,4.330396832331854e+16,4.3358618828103064e+16,54650504784585.53,0.0,0.0,0.0,0.0,0.0
183409.95024303574,4.330396832331854e+16,4.3358618828103064e+16,54650504784585.53,0.0,0.0,0.0,0.0,0.0
201751.94526733932,4.330396832331854e+16,4.3358618828103064e+16,54650504784585.53,0.0,0.0,0.0,0.0,0.0
221928.13979407327,4.330396832331854e+16,4.3358618828103064e+16,54650504784585.53,0.0,0.0,0.0,0.0,0.0
244121.9537734806,4.330396832331854e+16,4.3358618828103064e+16,54650504784585.53,0.0,0.0,0.0,0.0,0.0
268535.1491508287,4.330396832331854e+16,4.3358618828103064e+16,54650504784585.53,0.0,0.0,0.0,0.0,0.0
295389.6640659116,4.330396832331854e+16,4.3358618828103064e+16,54650504784585.53,0.0,0.0,0.0,0.0,0.0
324929.6304725028,4.330396832331854e+16,4.3358618828103064e+16,54650504784585.53,0.0,0.0,0.0,0.0,0.0
357423.5935197531,4.330396832331854e+16,4.3358618828103064e+16,54650504784585.53,0.0,0.0,0.0,0.0,0.0
393166.95287172846,4.330396832331854e+16,4.3358618828103064e+16,54650504784585.53,0.0,0.0,0.0,0.0,0.0
432484.6481589014,4.330396832331854e+16,4.3358618828103064e+16,54650504784585.53,0.0,0.0,0.0,0.0,0.0
475734.11297479155,4.330396832331854e+16,4.3358618828103064e+16,54650504784585.53,0.0,0.0,0.0,0.0,0.0
523308.52427227073,4.330396832331854e+16,4.3358618828103064e+16,54650504784585.53,0.0,0.0,0.0,0.0,0.0
575640.3766994978,4.330396832331854e+16,4.3358618828103064e+16,54650504784585.53,0.0,0.0,0.0,0.0,0.0
633205.4143694476,4.330396832331854e+16,4.3358618828103064e+16,54650504784585.53,0.0,0.0,0.0,0.0,0.0
696526.9558063925,4.330396832331854e+16,4.3358618828103064e+16,54650504784585.53,0.0,0.0,0.0,0.0,0.0
766180.6513870318,4.330396832331854e+16,4.3358618828103064e+16,54650504784585.53,0.0,0.0,0.0,0.0,0.0
842799.716525735,4.330396832331854e+16,4.3358618828103064e+16,54650504784585.53,0.0,0.0,0.0,0.0,0.0
927080.6881783085,4.330396832331854e+16,4.3358618828103064e+16,54650504784585.53,0.0,0.0,0.0,0.0,0.0
1019789.7569961395,4.330396832331854e+16,4.3358618828103064e+16,54650504784585.53,0.0,0.0,0.0,0.0,0.0
1121769.7326957537,4.330396832331854e+16,4.3358618828103064e+16,54650504784585.53,0.0,0.0,0.0,0.0,0.0
1233947.7059653292,4.330396832331854e+16,4.3358618828103064e+16,54650504784585.53,0.0,0.0,0.0,0.0,0.0
1357343.4765618623,4.330396832331854e+16,4.3358618828103064e+16,54650504784585.53,0.0,0.0,0.0,0.0,0.0
1493078.8242180487,4.330396832331854e+16,4.3358618828103064e+16,54650504784585.53,0.0,0.0,0.0,0.0,0.0
1642387.7066398538,4.330396832331854e+16,4.3358618828103064e+16,54650504784585.53,0.0,0.0,0.0,0.0,0.0
1806627.4773038393,4.330396832331854e+16,4.3358618828103064e+16,54650504784585.53,0.0,0.0,0.0,0.0,0.0
1987291.2250342234,4.330396832331854e+16,4.3358618828103064e+16,54650504784585.53,0.0,0.0,0.0,0.0,0.0
2186021.347537646,4.330396832331854e+16,4.3358618828103064e+16,54650504784585.53,0.0,0.0,0.0,0.0,0.0
2404624.4822914107,4.330396832331854e+16,4.3358618828103064e+16,54650504784585.53,0.0,0.0,0.0,0.0,0.0
2645087.9305205517,4.330396832331854e+16,4.3358618828103064e+16,54650504784585.53,0.0,0.0,0.0,0.0,0.0
2909597.723572607,4.330396832331854e+16,4.3358618828103064e+16,54650504784585.53,0.0,0.0,0.0,0.0,0.0
3200558.495929868,4.330396832331854e+16,4.3358618828103064e+16,54650504784585.53,0.0,0.0,0.0,0.0,0.0
3520615.345522855,4.330396832331854e+16,4.3358618828103064e+16,54650504784585.53,0.0,0.0,0.0,0.0,0.0
3872677.880075141,4.330396832331854e+16,4.3358618828103064e+16,54650504784585.53,0.0,0.0,0.0,0.0,0.0
4259946.668082655,4.330396832331854e+16,4.3358618828103064e+16,54650504784585.53,0.0,0.0,0.0,0.0,0.0
4685942.334890922,4.330396832331854e+16,4.3358618828103064e+16,54650504784585.53,0.0,0.0,0.0,0.0,0.0
5154537.568380014,4.330396832331854e+16,4.3358618828103064e+16,54650504784585.53,0.0,0.0,0.0,0.0,0.0
5669992.325218016,4.330396832331854e+16,4.3358618828103064e+16,54650504784585.53,0.0,0.0,0.0,0.0,0.0
6236992.5577398185,4.330396832331854e+16,4.3358618828103064e+16,54650504784585.53,0.0,0.0,0.0,0.0,0.0
6860692.8135138005,4.330396832331854e+16,4.3358618828103064e+16,54650504784585.53,0.0,0.0,0.0,0.0,0.0
7546763.0948651815,4.330396832331854e+16,4.3358618828103064e+16,54650504784585.53,0.0,0.0,0.0,0.0,0.0
8301440.4043517,4.330396832331854e+16,4.3358618828103064e+16,54650504784585.53,0.0,0.0,0.0,0.0,0.0
9131585.44478687,4.330396832331854e+16,4.3358618828103064e+16,54650504784585.53,0.0,0.0,0.0,0.0,0.0
10044744.98926556,4.330396832331854e+16,4.3358618828103064e+16,54650504784585.53,0.0,0.0,0.0,0.0,0.0
11049220.488192115,4.330396832331854e+16,4.3358618828103064e+16,54650504784585.53,0.0,0.0,0.0,0.0,0.0
12154143.537011327,4.330396832331854e+16,4.3358618828103064e+16,54650504784585.53,0.0,0.0,0.0,0.0,0.0
13369558.89071246,4.330396832331854e+16,4.3358618828103064e+16,54650504784585.53,0.0,0.0,0.0,0.0,0.0
14706515.779783707,4.330396832331854e+16,4.3358618828103064e+16,54650504784585.53,0.0,0.0,0.0,0.0,0.0
16177168.35776208,4.330396832331854e+16,4.3358618828103064e+16,54650504784585.53,0.0,0.0,0.0,0.0,0.0
17794886.19353829,4.330396832331854e+16,4.3358618828103064e+16,54650504784585.53,0.0,0.0,0.0,0.0,0.0
19574375.81289212,4.330396832331854e+16,4.3358618828103064e+16,54650504784585.53,0.0,0.0,0.0,0.0,0.0
21531814.394181333,4.330396832331854e+16,4.3358618828103064e+16,54650504784585.53,0.0,0.0,0.0,0.0,0.0
23684996.83359947,4.330396832331854e+16,4.3358618828103064e+16,54650504784585.53,0.0,0.0,0.0,0.0,0.0
26053497.51695942,4.330396832331854e+16,4.3358618828103064e+16,54650504784585.53,0.0,0.0,0.0,0.0,0.0
28658848.268655367,4.330396832331854e+16,4.3358618828103064e+16,54650504784585.53,0.0,0.0,0.0,0.0,0.0
31524734.095520906,4.330396832331854e+16,4.3358618828103064e+16,54650504784585.53,0.0,0.0,0.0,0.0,0.0
31536000.0,4.330396832331854e+16,4.3358618828103064e+16,54650504784585.53,0.0,0.0,0.0,0.0,0.0
