t(s),Total solute volume 1,Total retention volume 1,Total 1 volume 1,Total 2 volume 1,Total 3 volume 1,Total 4 volume 1,Total 5 volume 1,Total 6 volume 1
1.0,1884332709606850.5,1884793626999242.0,460917392393.0945,0.0,0.0,0.0,0.0,0.0
2.1,2755459929711566.5,3003931812742091.5,673999551836.8475,248993055544.8196,768481663352.0916,7782061886323.405,102918331972095.48,136080014901381.61
3.3100000000000005,3358712852198006.0,3993758418913499.5,821558292641.6481,637085383006.781,1966301243361.1362,19915399543517.312,263379028347062.56,348326193905896.4
4.641000000000001,3822286340404781.0,4960704731644698.0,934950731910.5729,1142221389560.562,3525408556981.253,35713633462601.33,472302308051195.5,624799869047664.4
6.105100000000002,4195901261912017.5,5947455415725800.0,1026338847239.0605,1757150323130.2595,5423448352127.573,54953360876936.19,726730967006834.8,961662888407522.2
7.7156100000000025,4505295610097608.0,6978580534174713.0,1102018282967.4106,2480495994278.767,7656200316442.097,77595331530757.77,1026142684211391.9,1358308193741270.5
9.487171000000004,4766011373890430.0,8071750813577757.0,1165790688789.7466,3314158446538.5205,10229561167689.725,103703443503094.95,1371378580221017.5,1815947905660201.2
11.435888100000005,4988379723903451.0,9241708624673772.0,1220183121687.005,4262282747769.993,13156363449293.084,133412719730377.69,1764219532016327.0,2337057819704862.0
13.579476910000007,5179730587398050.0,1.0502017636475242e+16,1266988519222.912,5330784091404.01,16454911482144.652,166914697788532.38,2207192749602344.0,2925126917593536.0
15.937424601000009,5345512905240066.0,1.1865967433674542e+16,1307539720104.06,6527116527791.334,20148269529517.48,204450474292441.72,2703479546383501.0,3584541581981107.0
18.53116706110001,5489920133745744.0,1.3347108705445966e+16,1342862465118.8088,7860165008613.459,24263930916637.027,246307655332815.97,3256874718626953.0,4320539239350071.5
21.384283767210015,5616266011956384.0,1.495961146210957e+16,1373767311727.4895,9340207202522.695,28833702941321.36,292819551843325.5,3871775555021847.0,5139202665832426.0
24.522712143931017,5727223717105884.0,1.67185338322481e+16,1400908132708.3635,10978918611709.148,33893725974833.523,344365806459437.0,4553189705960293.0,6047481050003260.0
27.97498335832412,5824985380376158.0,1.864004516057528e+16,1424821134524.2212,12789406785315.033,39484583025049.08,401374024068499.56,5306756239918540.0,7053230705267239.0
31.772481694156536,5911372703787127.0,2.074162704592435e+16,1445951914777.2778,14786266451922.254,45651474652210.414,464322169458416.6,6138776740216664.0,8165271739443204.0
35.949729863572195,5987916223585724.0,2.304226606876793e+16,1464674850437.9163,16985650522501.105,52444443807806.13,533741596727683.3,7056254631146801.0,9393458848127028.0
40.544702849929415,6055913714001822.0,2.5562646799391816e+16,1481307383701.0183,19405353584751.117,59918640346353.97,610220631398948.1,8066941662707905.0,1.0748765489968368e+16
45.59917313492236,6116474262537401.0,2.8325350864370964e+16,1496120803026.1526,22064905386736.477,68134617697099.68,694408658399895.9,9179390904510606.0,1.2243381395036296e+16
51.1590904484146,6170552224189115.0,3.135506626327469e+16,1509348548513.4338,24985672220313.684,77158655491099.67,787020687579723.1,1.0403015838456046e+16,1.3890823836789838e+16
57.27499949325607,6218973848569081.0,3.467881021573903e+16,1521192725032.8833,28190964231296.97,87063102338296.38,888842378563430.4,1.1748155267123122e+16,1.5706063462188704e+16
64.00249944258168,6262458486285432.0,3.83261682925785e+16,1531829289413.1855,31706146591463.07,97926732710337.02,1000735511345051.5,1.3226143807775402e+16,1.7705665778581318e+16
71.40274938683986,6301635707554486.0,4.232955228610417e+16,1541412237741.4224,35558752212584.37,109835111147518.66,1123643889579727.8,1.4849387740132404e+16,1.9907949673239836e+16
79.54302432552385,6337059286027565.0,4.672447911482147e+16,1550077025878.3489,39778593286155.36,122880955838327.66,1258599660789587.2,1.6631445929114356e+16,2.23331646127396e+16
88.49732675807624,6369218743044117.0,5.154987298311796e+16,1557943393241.574,44397868402156.43,137164492040832.69,1406730031927837.8,1.8587115455170484e+16,2.5003688449139308e+16
98.34705943388387,6398548968826256.0,5.6848392994529384e+16,1565117716198.736,49451261335912.06,152793783824890.56,1569264349930476.2,2.073252145413064e+16,2.794424805876508e+16
109.18176537727226,6425438310719670.0,6.2666788426168056e+16,1571694986492.4885,54976026789379.7,169885030196661.56,1747541504797778.5,2.3085210492613076e+16,3.118216536606508e+16
121.09994191499949,6450235427451183.0,6.905628389706045e+16,1577760487826.8164,61012057425829.01,188562808799782.22,1943017596999312.0,2.5664246578639684e+16,3.4747631667256876e+16
134.20993610649944,6473255141487624.0,7.607299669338493e+16,1583391227383.8613,67601925439135.3,208960247048332.2,2157273791064782.0,2.8490308623302516e+16,3.86740135738151e+16
148.6309297171494,6494783471665505.0,8.377838854013816e+16,1588657166830.8071,74790890647912.2,231219096719617.12,2392024252468199.5,3.158578781969553e+16,4.299819435177446e+16
164.49402268886433,6515081990416997.0,9.22397541240751e+16,1593622288119.5527,82626865702903.12,255489683718281.22,2649124034587304.5,3.497488298020987e+16,4.776095494715174e+16
181.94342495775078,6534391620787737.0,1.0153074867016992e+17,1598345522256.671,91160327454408.7,281930699938806.2,2930576745780526.0,3.868369136197812e+16,5.300739956870804e+16
201.13776745352587,6552935965688338.0,1.1173195684717354e+17,1602881563655.254,100444161868404.39,310708798957162.94,3238541782544232.5,4.274029190126377e+16,5.878743135528789e+16
222.25154419887846,6570924243774695.0,1.2293150522156445e+17,1607281588266.2712,110533428145866.56,341997951778629.5,3575340862310914.0,4.717481705911614e+16,6.515628439484995e+16
245.47669861876633,6588553891814197.0,1.3522572038845174e+17,1611593890130.5776,121485025953069.27,375978513227569.7,3943463527717179.5,5.201950864110496e+16,7.217511919474432e+16
271.024368480643,6606012881468140.0,1.4871983477923968e+17,1615864448075.719,133357248004429.72,412835944042515.75,4345571222138898.0,5.730875198310865e+16,7.991168963602875e+16
299.1268053287073,6623481788440556.0,1.6352874197734797e+17,1620137431840.3137,146209198784704.72,452759128702739.1,4784499453101055.0,6.307908178513416e+16,8.84410904857529e+16
330.03948586157804,6641135643390840.0,1.797778031660301e+17,1624455654816.6921,160100059131214.97,495938224964516.75,5263257465199859.0,6.936915162253789e+16,9.784659569515062e+16
364.0434344477359,6659145586477308.0,1.9760370609162765e+17,1628860978760.734,175088175951935.72,542561978697047.1,5785024737195724.0,7.621965777214773e+16,1.0822059898017928e+17
401.44777789250946,6677680340569788.0,2.1715537766235395e+17,1633394674147.1313,191229956828220.03,592814437744787.8,6353143499342218.0,8.367320647312416e+16,1.1966566956007029e+17
442.5925556817604,6696907511774809.0,2.38594951035916e+17,1638097738284.5413,208578551008494.06,646871002289880.4,6971106338116820.0,9.177411212684429e+16,1.3229573740814318e+17
487.8518112499365,6716994719747412.0,2.6209878780861216e+17,1643011171795.5754,227182301781108.7,704893757864685.2,7642537818935936.0,1.0056811227446421e+17,1.462374239246463e+17
537.6369923749302,6738110554141523.0,2.8785855574733062e+17,1648176212569.4902,247082960928645.03,767026052320022.8,8371168917592403.0,1.101019835497627e+17,1.6163153553637286e+17
592.4006916124232,6760425347348906.0,3.160823624651627e+17,1653634524778.0183,268313664472895.78,833386301437613.2,9160802914909598.0,1.2042304129810904e+17,1.786347393043602e+17
652.6407607736655,6784111747302154.0,3.4699594561356365e+17,1659428338985.983,290896680801241.3,904061041352837.4,1.0015271286510022e+16,1.3157850433474696e+17,1.9742144109451094e+17
718.9048368510321,6809345067540407.0,3.8084392065744595e+17,1665600537779.0645,314840958070360.6,979097291374759.4,1.0938378024784986e+16,1.4361470559774731e+17,2.1818588811738992e+17
791.7953205361354,6836303384989210.0,4.178910882520392e+17,1672194679681.3347,340139517946264.44,1058494349757668.1,1.1933830782352352e+16,1.56576129511663e+17,2.4114451851065152e+17
871.9748525897489,6865167349122724.0,4.584238048217555e+17,1679254952475.343,366766767462989.3,1142195218523998.0,1.3005157250887566e+16,1.7050425807482102e+17,2.6653858090598515e+17
960.1723378487239,6896119659610783.0,5.027514223545747e+17,1686826045431.9,394675829879638.8,1230077941569717.2,1.4155605318748882e+16,1.8543621046229184e+17,2.946370463164282e+17
1057.1895716335964,6929344163633730.0,5.51207806902826e+17,1694952928508.7031,423796028117863.44,1321947241404380.2,1.5388025825760182e+16,2.014031658355055e+17,3.257398328554771e+17
1163.9085287969563,6965024519420911.0,6.041529500752929e+17,1703680525445.0618,454030689091038.6,1417526950093648.8,1.6704737202460674e+16,2.1842856669126528e+17,3.601813603424361e+17
1281.299381676652,7003342370161365.0,6.619746941714234e+17,1713053267091.1108,485255471370616.7,1516453842325574.2,1.8107372000003024e+16,2.365261111530551e+17,3.983344462812407e+17
1410.4293198443174,7044474973515856.0,7.250905997740321e+17,1723114511574.397,517317448302984.5,1618273582265016.2,1.9596706346511e+16,2.5569755780643248e+17,4.406145465024948e+17
1552.4722518287492,7088592238192078.0,7.939499947378052e+17,1733905819431.049,550035198657272.94,1722439575925349.8,2.1172474766864384e+16,2.759303866396265e+17,4.874843324127179e+17
1708.7194770116243,7135853132515192.0,8.6903625560712e+17,1745466075123.841,583200160618308.0,1828315557706611.0,2.283317462782869e+16,2.9719538480199994e+17,5.3945858186037645e+17
1880.5914247127869,7186401453116787.0,9.508693863682712e+17,1757830452041.9324,616579484962873.2,1935182710365625.0,2.4575866749755692e+16,3.194442562779359e+17,5.971093418616826e+17
2069.6505671840655,7240360977534653.0,1.0400089745640268e+18,1771029226802.0913,649920571914749.6,2042251997015753.2,2.6395981449741692e+16,3.426073895841697e+17,6.610712989544219e+17
2277.615623902472,7297830075424718.0,1.1370576202086358e+18,1785086461123.6255,682957386901206.5,2148682148418573.0,2.8287142373342024e+16,3.66591955654602e+17,7.320472674834876e+17
2506.3771862927197,7358875921519293.0,1.2426649471143444e+18,1800018586288.5044,715418519582216.9,2253603382230800.0,3.0241023760381864e+16,3.91280546259043e+17,8.10813679253001e+17
2758.0149049219917,7423528540467325.0,1.357532317001149e+18,1815832946478.9155,747036779638065.5,2356146430080043.5,3.22472599726215e+16,4.165305969957352e+17,8.982259324496591e+17
3034.816395414191,7491775018003875.0,1.4824183712493194e+18,1832526382799.8276,777559921052842.2,2455475831993855.0,3.42934287245145e+16,4.421748615406653e+17,9.952234376867103e+17
3339.2980349556105,7563554329601672.0,1.6181455199054513e+18,1850083968340.7754,806761872844444.1,2550825773427367.0,3.6365130864905784e+16,4.6802320693694566e+17,1.1028341900437605e+18
3674.227838451172,7638753356820763.0,1.7656074787518528e+18,1868478033754.6975,834453657613417.6,2641536069109289.5,3.844618895885344e+16,4.938659733256208e+17,1.2221787049058007e+18
4042.6506222962894,7717204766575139.0,1.9257779192101125e+18,1887667648515.731,860493038067658.8,2727085353367325.5,4.051898342299815e+16,5.1947907546616403e+17,1.354473189495292e+18
4447.915684525919,7798687496231428.0,2.0997202397566646e+18,1907598739576.784,884791888140183.4,2807118252774039.0,4.2564937729180216e+16,5.44630909338211e+17,1.5010318874533898e+18
4893.707252978511,7882930588908049.0,2.28859839041423e+18,1928205029503.2856,907320377505334.8,2881463426479374.5,4.456515263435575e+16,5.690909616375699e+17,1.663268633544381e+18
5384.077978276362,7969621027535315.0,2.493688585725949e+18,1949409952724.1736,928107308587463.5,2950139959495802.0,4.6501173518258296e+16,5.926398083036207e+17,1.8426977861985032e+18
5923.485776103998,8058415996722682.0,2.716391632314843e+18,1971129654847.0784,947236348050492.6,3013350706044923.0,4.835585561808173e+16,6.150799478267805e+17,2.0409348546895063e+18
6516.834353714399,8148959645937132.0,2.9582454849784315e+18,1993277093017.1714,964838407852428.2,3071462714967768.0,5.011427132251875e+16,6.362466778940344e+17,2.2596972817160238e+18
7169.5177890858395,8240903948561412.0,3.220937544524368e+18,2015767138149.0984,981080973877375.5,3124976612842196.5,5.176458504857145e+16,6.560180352231456e+17,2.50080594695023e+18
7887.469567994424,8333932695572768.0,3.506316137680149e+18,2038522443903.025,996155645594203.8,3174488453290911.0,5.3298808843889384e+16,6.743227309571922e+17,2.7661879825621693e+18
8677.216524793868,8427787112563166.0,3.8164005898950395e+18,2061479712738.3489,1010265427775179.6,3220648700934175.0,5.471335019261794e+16,6.911450765188358e+17,3.0578814004625946e+18
9545.938177273256,8522291154802483.0,4.153389325933552e+18,2084595883215.0205,1023613323997195.5,3264123398350950.5,5.6009276006844424e+16,7.065261366073804e+17,3.378041800846298e+18
10501.531995000581,8617374332849035.0,4.5196655114215465e+18,2107853713254.2195,1036393500370598.6,3305562017063277.0,5.719224452693005e+16,7.205607610852406e+17,3.728951068105374e+18
11552.68519450064,8713090040218787.0,4.917799868777727e+18,2131266263179.6423,1048785771598636.1,3345575104232412.5,5.827209740179175e+16,7.333906849223464e+17,4.11302750427127e+18
12708.953713950705,8809627824244755.0,5.350550438109372e+18,2154879897232.2412,1060953532182978.9,3384722925023851.5,5.926215134228044e+16,7.451944517467954e+17,4.532836375858951e+18
13980.849085345777,8907318808821034.0,5.820859173287534e+18,2178775610001.079,1073044668154950.0,3423514336622692.0,6.017827331349025e+16,7.56175393871781e+17,4.991099449513049e+18
15379.933993880357,9006634409524914.0,6.331845329456635e+18,2203068712135.6733,1085194577202010.9,3462413587559443.0,6.103785536894056e+16,7.665491779878252e+17,5.490701850456862e+18
16918.927393268394,9108179391601100.0,6.886795582568244e+18,2227907132293.4683,1097530274069925.1,3501851938598184.0,6.185881710284738e+16,7.76532429674197e+17,6.034694546279799e+18
18611.820132595236,9212681020705586.0,7.489150712985921e+18,2253468763356.5645,1110174657669940.4,3542241024320903.5,6.26587520993314e+16,7.86333676366618e+17,6.626290934348524e+18
20474.00214585476,9320976407483156.0,8.142488494541108e+18,2279958366850.702,1123250288920986.6,3583985545668459.5,6.3454302396674296e+16,7.961473641036184e+17,7.268856335840381e+18
22522.40236044024,9434000101623316.0,8.850502189159237e+18,2307604538388.0615,1136882361569717.8,3627493876273947.0,6.4260799883861896e+16,8.061511282522004e+17,7.965889577079185e+18
24775.642596484264,9552773598363720.0,9.616973800303602e+18,2336657140904.3145,1151200838596934.0,3673186134672629.5,6.509216665610955e+16,8.165059689154373e+17,8.720996167503281e+18
27254.206856132692,9678397804217404.0,1.0445741033242229e+19,2367385461736.9087,1166341911808499.8,3721499975232250.0,6.596102820747738e+16,8.273586090961696e+17,9.537852788861876e+18
29980.627541745966,9812048822640984.0,1.1340656784936425e+19,2400077181777.738,1182449009435094.8,3772894690950783.5,6.68789709767072e+16,8.388451532507146e+17,1.0420162868108804e+19
32979.69029592056,9954976800177832.0,1.2305539963591096e+19,2435038093233.556,1199673551987446.2,3827854244924330.0,6.785687106267707e+16,8.510952058952419e+17,1.1371602946998e+19
36278.65932551262,1.0108507102850446e+16,1.3344116522874614e+19,2472592387377.106,1218175582411028.5,3886889671947573.5,6.890523080646631e+16,8.642357934549699e+17,1.2395759453663576e+19
39907.525258063884,1.0274042790969098e+16,1.4459949780958441e+19,2513083259897.47,1238124310861480.0,3950541041290687.5,7.00344781752295e+16,8.78394673893419e+17,1.3496055407663415e+19
43899.277783870275,1.0453067194207984e+16,1.565635936634815e+19,2556873540776.2573,1259698540171250.0,4019378932179427.5,7.125520363657887e+16,8.93702841659163e+17,1.46756666195123e+19
48290.20556225731,1.0647145293740826e+16,1.6936328477447682e+19,2604346032364.3057,1283086882161047.8,4094005180760180.5,7.257832518887768e+16,9.102961918488006e+17,1.5937427118707298e+19
53120.22611848305,1.0857922525766398e+16,1.8302399549604172e+19,2655903216717.1865,1308487633330970.8,4175052508543926.5,7.40151817675398e+16,9.2831638215668e+17,1.7283723867109085e+19
58433.24873033136,1.108711947675305e+16,1.9756558881017803e+19,2711965958024.025,1336108142925179.8,4263182516233116.0,7.557755828050338e+16,9.479109350157233e+17,1.871638126561971e+19
64277.57360336451,1.1336520715289326e+16,2.1300111262085726e+19,2772970770820.263,1366163469520954.5,4359081400924767.0,7.72776435842021e+16,9.692325789087254e+17,2.023653650103625e+19
70706.33096370097,1.1607955695227114e+16,2.2933546157461344e+19,2839365148797.94,1398874080609127.2,4463452617680831.5,7.912791790144112e+16,9.92437761550151e+17,2.184450735625101e+19
77777.96406007107,1.1903269292879554e+16,2.4656397472563868e+19,2911600358052.996,1434462302050196.5,4577005550552636.0,8.114096038595024e+16,1.0176841972008329e+18,2.3539654666231263e+19
85556.76046607818,1.2224279158624772e+16,2.6467099358215434e+19,2990121005068.8774,1473147178694915.0,4700439114473229.0,8.33291621145855e+16,1.045127247986651e+18,2.5320242092541415e+19
94113.436512686,1.2572716756502312e+16,2.8362840840049406e+19,3075350614700.251,1515137369068090.8,4834419083969875.0,8.570432568864797e+16,1.0749148934250551e+18,2.7183296272375525e+19
103525.78016395462,1.295014886649116e+16,3.0339422309280068e+19,3167672429229.393,1560621685611701.0,4979547909462301.0,8.827713071118269e+16,1.1071810227439972e+18,2.912447066969087e+19
113879.3581803501,1.3357876623923634e+16,3.2391117152669503e+19,3267404712892.0537,1609756927930462.5,5136325896234419.0,9.105644576825523e+16,1.142036804489338e+18,3.113791667555913e+19
125268.29399838512,1.3796810124609158e+16,3.451054221166441e+19,3374770079652.5024,1662652771463993.8,5305102988045317.0,9.404847373999558e+16,1.1795599670392394e+18,3.3216165830230995e+19
137796.12339822366,1.4267318542156836e+16,3.668854165238566e+19,3489858831139.148,1719353705137655.8,5486021134818672.0,9.725573011950642e+16,1.2197819861788782e+18,3.535002775284637e+19
151576.73573804603,1.4769058900982172e+16,3.891409062182902e+19,3612587073653.755,1779818396814017.0,5678948453149315.0,1.006758758694009e+17,1.2626734494648133e+18,3.752850985815677e+19
166735.40931185064,1.5300791346822046e+16,4.117422820266691e+19,3742651532405.057,1843897431563665.8,5883408194955663.0,1.043004582434942e+17,1.3081282680579182e+18,3.973876763674065e+19
183409.95024303574,1.5860194913622346e+16,4.345403391839825e+19,3879484487160.6475,1911311109757960.5,6098507907084689.0,1.0811365501902118e+17,1.3559479332254308e+18,4.196609843673897e+19
201751.94526733932,1.6443704873329436e+16,4.573666814455056e+19,4022213987190.278,1981629846120542.0,6322876889991305.0,1.120911658793874e+17,1.405827620292606e+18,4.419399712455512e+19
221928.13979407327,1.7046399541171674e+16,4.800350316758358e+19,4169636163276.2817,2054260528660263.0,6554622672944957.0,1.161994409400551e+17,1.4573465225184e+18,4.6404297751746175e+19
244121.9537734806,1.7661968877973828e+16,5.023437616087511e+19,4320207547696.157,2128442734960762.0,6791318941579660.0,1.2039546686589213e+17,1.5099651788036006e+18,4.857742946444361e+19
268535.1491508287,1.8282796819503092e+16,5.240799499047098e+19,4472065212414.854,2203258653705650.2,7030037195329768.0,1.246273282147139e+17,1.563032523271179e+18,5.069281457425128e+19
295389.6640659116,1.8900181555080424e+16,5.450251936836377e+19,4623080650365.877,2277659630454643.0,7267431448510557.0,1.2883570909413579e+17,1.6158047252666156e+18,5.272942903828839e+19
324929.6304725028,1.9504701821217572e+16,5.649632146860185e+19,4770949372743.587,2350510309670522.0,7499879076365322.0,1.329563900842961e+17,1.667476506943023e+18,5.466652870941787e+19
357423.5935197531,2.008671395404736e+16,5.836890237029561e+19,4913312490552.208,2420648534465582.5,7723671939730014.0,1.369236364072594e+17,1.7172236322494682e+18,5.648451915389814e+19
