t(s),Total solute volume 1,Total retention volume 1,Total 1 volume 1,Total 2 volume 1,Total 3 volume 1,Total 4 volume 1,Total 5 volume 1,Total 6 volume 1
1.0,3675938732058570.0,3710611865695486.0,34673133636920.73,0.0,0.0,0.0,0.0,0.0
2.1,5649417975296811.0,5702740483138648.0,53287861869230.35,3341527.0814842195,26943616.157671966,1090727630.6779284,21374679635.770393,12150280194.832186
3.3100000000000005,7238156810734508.0,7306522532852267.0,68273548939317.47,8989438.920952305,72483357.27764763,2931945918.6110735,56977249799.95661,32182509912.966606
4.641000000000001,8658717060789311.0,8740562569672915.0,81672902471220.34,16947492.512421973,136649574.80283776,5525256556.4788685,106858374385.25131,60069184366.472404
6.105100000000002,9991904108614964.0,1.008643024103282e+16,94248114068992.03,27416769.9547872,221063645.6934917,8936553430.108435,172304758501.63593,96528556503.5492
7.7156100000000025,1.1278354355610786e+16,1.138514834134891e+16,106382483979729.72,40702477.05678788,328186464.8503541,13265627309.708374,255236405077.70493,142630837027.36636
9.487171000000004,1.2542219219089896e+16,1.2661100011066778e+16,118303818918095.86,57193339.8180546,461152335.17183876,18639533127.852604,358086747833.032,199728432135.81265
11.435888100000005,1.37995507130013e+16,1.3930493398817742e+16,130163528506404.47,77359353.81431615,623750827.4671569,25211912197.23425,483792991045.50464,269451296670.7256
13.579476910000007,1.50619404665001e+16,1.520503505916541e+16,142070950077175.9,101756788.87466021,820467135.9049768,33164674972.571293,635829726166.4333,353725963091.6588
15.937424601000009,1.6338325950715672e+16,1.649375330800706e+16,154110385788459.47,131037240.6600724,1056555061.9926691,42711009163.25201,818267021427.0367,454805880051.71014
18.53116706110001,1.763597777835521e+16,1.7803994946150614e+16,166350415262781.7,165959675.79285958,1338134134.654801,54099375879.982735,1035846746112.6373,575302316797.4874
21.384283767210015,1.8961080461413924e+16,1.9142011599429244e+16,178849373545921.3,207405175.26140672,1672308485.5135758,67618401721.3193,1294074808509.824,718191545496.3375
24.522712143931017,2.031909458422956e+16,2.0513325350427736e+16,191658767278701.22,256394407.96682593,2067307735.1495938,83602678996.89165,1599327497189.8179,886745041139.2437
27.97498335832412,2.1714993829829296e+16,2.192296789854048e+16,204825510427247.62,314108038.44952834,2532651532.271489,102439537223.23535,1958968161270.548,1084303825827.403
31.772481694156536,2.315342645218854e+16,2.337564325884161e+16,218393447347917.97,381910381.60319674,3079340260.9406195,124576874292.39787,2381466186466.955,1313854993851.4407
35.949729863572195,2.46388285495223e+16,2.4875841714485596e+16,232404421208546.12,461376692.37022406,3720075031.2665477,150532143880.93143,2876504485268.6875,1577525673989.675
40.544702849929415,2.617550407963125e+16,2.642792039750925e+16,246899028692521.97,554324524.2802596,4469510430.952514,180902589438.4437,3455056965085.2764,1876305795954.3958
45.59917313492236,2.776767888389865e+16,2.8036158103437904e+16,261917129525204.12,662849599.0834594,5344543574.245268,216376796517.97958,4129417387743.01,2210288436651.2705
51.1590904484146,2.941953060379754e+16,2.9704786171337532e+16,277498128592946.3,789366580.2335469,6364642578.890735,257747605118.99167,4913168809899.568,2579368522863.314
57.27499949325607,3.1135191822390796e+16,3.1437992343854564e+16,293681005498450.56,936654995.388047,7552216408.945051,305926376947.45166,5821098274211.333,2984002442731.1274
64.00249944258168,3.2918719486038216e+16,3.3239890261275188e+16,310504026055233.2,1107910253.0989373,8933025605.789978,361958536965.7187,6869079905530.135,3425669803379.525
71.40274938683986,3.477402027910485e+16,3.511444413893805e+16,328004038322310.2,1306799204.4594924,10536629453.650839,427040192032.28845,8073963399998.702,3906974490241.387
79.54302432552385,3.670472039854856e+16,3.70653371504835e+16,346215244217799.8,1537519005.5333278,12396859539.517303,502535466535.5276,9453507437304.42,4431530434765.258
88.49732675807624,3.871397013697579e+16,3.909577402393914e+16,365167356252406.75,1804857178.8499038,14552302774.757841,589993990967.2032,11026386991530.97,5003792568510.047
98.34705943388387,4.080417918457974e+16,4.120821381899842e+16,384883100815990.94,2114249834.8080463,17046769411.327229,691167752614.2509,12812284005861.346,5628920824985.726
109.18176537727226,4.297668712667027e+16,4.340403741655789e+16,405375110246776.7,2471834116.1683536,19929714372.0556,808026299478.3861,14832050175884.715,6312701617027.969
121.09994191499949,4.523138392088152e+16,4.5683164611065784e+16,426642343131586.8,2884490205.399514,23256574404.911385,942769118920.0701,17107915911593.129,7061520957509.36
134.20993610649944,4.756630524908132e+16,4.804364588967827e+16,448666267652110.3,3359867803.7220583,27088980118.699368,1097833929926.9445,19663714564987.164,7882375601818.201
148.6309297171494,4.997723551364519e+16,5.04812619368766e+16,471407117066275.3,3906391928.5240545,31494801478.059536,1275899659843.4844,22525095121655.707,8782910190327.997
164.49402268886433,5.245735534868479e+16,5.298916805659944e+16,494800565093998.44,4533243208.824178,36547988042.494385,1479883033449.2646,25719706353221.84,9771472202644.953
181.94342495775078,5.499697025780136e+16,5.555762045750047e+16,518755166532578.7,5250308578.71622,42328171062.65766,1712927979000.446,29277346776411.77,10857179931537.576
201.13776745352587,5.75833528509744e+16,5.817381718134093e+16,543150869386124.9,6068099368.18176,48920003428.183,1978387438646.1353,33230084381876.812,12050001057152.914
222.25154419887846,6.020072442020016e+16,6.082187966613094e+16,567838841283932.4,6997635299.275643,56412225628.835014,2279797649337.6616,37612356256410.25,13360840880316.805
245.47669861876633,6.28303938216728e+16,6.348299309449057e+16,592642779654119.2,8050294902.831465,64896462054.18891,2620845537818.356,42461060731558.56,14801640137295.727
271.024368480643,6.545106403453707e+16,6.613571600922847e+16,617361803451492.8,9237635509.899393,74465773179.6918,3005330566575.7183,47815654447896.516,16385482816813.252
299.1268053287073,6.803930975683818e+16,6.875646260220645e+16,641774958121348.2,10571189358.449356,85213016388.29391,3437123196943.017,53718265131360.516,18126714712905.457
330.03948586157804,7.057022247189747e+16,7.1320154089468024e+16,665647300138501.8,12062246484.709398,97229101314.54807,3920123101725.448,60213829294894.336,20041073687629.51
364.0434344477359,7.301821141472811e+16,7.380102750718427e+16,688737451969567.9,13721639698.700869,110601262734.60088,4458221316740.859,67350263420736.69,22145832846677.62
401.44777789250946,7.5357938549128e+16,7.617357984851882e+16,710806420979168.8,15559551505.445663,125411510589.78398,5055271552172.493,75178677724901.25,24459958072504.195
442.5925556817604,7.756535238403902e+16,7.841361205668328e+16,731627350528259.5,17585366402.13859,141735445304.92688,5715076694372.606,83753642995800.92,27004281614097.113
487.8518112499365,7.96187696987173e+16,8.049932148372414e+16,750995722879117.6,19807593348.03485,159641637446.06384,6441396851280.698,93133522358333.44,29801693687205.152
537.6369923749302,8.14999378656042e+16,8.241237488929587e+16,768739379026429.5,22233881058.2696,179191753451.78357,7237984829448.558,103380879927120.08,32877354273998.746
592.4006916124232,8.319499653748674e+16,8.413887999615603e+16,784727589265857.6,24871141998.400173,200441554707.7279,8108653400001.335,114562975803608.4,36258927503162.664
652.6407607736655,8.469524980358912e+16,8.567016587569414e+16,798878336049986.8,27725789002.200756,223442801189.9415,9057375938203.48,126752350411975.88,39976841114684.164
718.9048368510321,8.599766226473926e+16,8.700328478889637e+16,811162992807777.8,30804071707.84704,248245956533.6736,10088418023460.666,140027489753361.33,44064573544184.93
791.7953205361354,8.710500758439371e+16,8.814116333545766e+16,821607724889949.5,34112480179.23795,274903432097.09393,11206492662245.242,154473546513966.3,48558971085618.04
871.9748525897489,8.802562674856069e+16,8.909235968400582e+16,830291209274921.5,37658163172.23821,303472947637.2963,12416926580999.354,170183071060470.6,53500597418012.15
960.1723378487239,8.87727936142253e+16,8.987042435610118e+16,837338650214936.2,41449292609.87378,334020458441.1408,13725820481549.65,187256683867924.53,58934117560475.81
1057.1895716335964,8.936373242283678e+16,9.049290955525643e+16,842912512217178.9,45495298363.989555,366622038664.8456,15140183391416.037,205803601325157.7,64908718148716.484
1163.9085287969563,8.981837826069594e+16,9.098011876333491e+16,847200828504476.5,49806902002.990814,401364147199.7009,16668021325765.7,225941915810071.47,71478565949405.88
1281.299381676652,9.015800805377709e+16,9.135372528452821e+16,850404288366186.1,54395896228.64709,438341847496.71857,18318364016877.14,247798533721557.06,78703306902895.25
1410.4293198443174,9.040388832651082e+16,9.163540726218952e+16,852723482643987.4,59274646602.11834,477654792952.1547,20101220287090.43,271508694484743.6,86648608823236.98
1552.4722518287492,9.057608133687728e+16,9.184564207748166e+16,854347643051015.9,64455328753.975494,519401083748.82495,22027461606401.82,297215027344782.1,95386752189688.28
1708.7194770116243,9.069252291833547e+16,9.200277454194597e+16,855445944269517.2,69948949979.16837,563669388309.7971,24108642518399.566,325066143398990.94,104997275085267.75
1880.5914247127869,9.076843863438803e+16,9.212242617536366e+16,856161997061925.1,75764230842.51892,610529937629.5626,26356773625771.062,355214796130447.44,115567679989304.03
2069.6505671840655,9.081610957964458e+16,9.221725709063536e+16,856611639299659.0,81906434178.64906,660025095508.1967,28784065773798.793,387815662906864.6,127194211480756.8
2277.615623902472,9.084494734514488e+16,9.229703969685365e+16,856883643076811.5,88376223990.4947,712160168621.6426,31402662129457.098,423022795395860.56,139982714713855.92
2506.3771862927197,9.086179999519582e+16,9.236896537261046e+16,857042600760888.6,95168618688.04007,766894975178.8898,34224368668068.26,460986759647842.4,154049584744013.6
2758.0149049219917,9.087139369329698e+16,9.243808784006565e+16,857133090506860.0,102272079346.96512,824136499843.2585,37260385092764.41,501851445994687.44,169522816595185.12
3034.816395414191,9.087681700418656e+16,9.2507812032039e+16,857184244297441.4,109667751534.07443,883732789559.4967,40521048208468.734,545752184240259.3,186544150565259.22
3339.2980349556105,9.087998439334846e+16,9.25803471062225e+16,857214119767305.2,117328880379.36287,945468217502.0365,44015460025969.07,592804274830355.1,205266061152563.28
3674.227838451172,9.088200864941069e+16,9.265709847315128e+16,857233212969262.1,125220380556.16873,1009060053247.711,47751295905111.7,643110736763188.2,225860297669182.2
4042.6506222962894,9.088350486658174e+16,9.273895571162462e+16,857247325599144.8,133298633219.31339,1074156796882.98,51734338201054.36,696747673005972.9,248514052806538.62
4447.915684525919,9.088479165554197e+16,9.282649545456432e+16,857259462858811.1,141511509004.41367,1140338371416.59,55968088938315.07,753761148623963.8,273433248720760.38
4893.707252978511,9.088602372891485e+16,9.292011011198629e+16,857271084029732.0,149798698057.76337,1207118781153.9822,60453303390328.0,814160667959034.1,300844410213090.25
5384.077978276362,9.088727090276779e+16,9.302008213497102e+16,857282847631496.9,158092410174.27002,1273951752824.0818,65187480548292.79,877912137023954.0,330996722836330.3
5923.485776103998,9.08885616228718e+16,9.312662231535182e+16,857295021970502.6,166318510209.68796,1340239884550.835,70164324144870.1,944930491528432.8,364164296441415.4
6516.834353714399,9.088990513113182e+16,9.323988667033896e+16,857307694218303.9,174398137687.4428,1405347696809.1775,75373194465879.17,1015072249290765.4,400648655397761.1
7169.5177890858395,9.089130188041923e+16,9.33599820059944e+16,857320868646481.5,182249829517.4893,1468618737732.4543,80798577717857.62,1088128332236651.1,440781478407033.44
7887.469567994424,9.089274803046723e+16,9.348696654265912e+16,857334509032844.8,189792121995.21664,1529396550667.4124,86419606368923.23,1163817595273121.8,484927612844390.75
8677.216524793868,9.08942372189148e+16,9.362084942404154e+16,857348555366279.8,196946555016.03217,1587048882930.8594,92209670543985.52,1241781592842307.2,533488390936256.4
9545.938177273256,9.089576119766278e+16,9.376159140786024e+16,857362929849015.6,203640941647.05597,1640994032900.5208,98136166757373.72,1321581200812827.5,586905277803635.9
10501.531995000581,9.089731005980245e+16,9.390910823821262e+16,857377539037039.6,209812705917.48114,1690727746831.7117,104160435144225.42,1402695779334681.0,645663884441320.9
11552.68519450064,9.089887236392371e+16,9.406327781567118e+16,857392275012599.6,215412039340.16916,1735848654955.955,110237938707531.6,1484525595274720.0,710298382058462.2
12708.953713950705,9.090043527926576e+16,9.422395207665659e+16,857407016753313.0,220404592535.98676,1776079961303.3374,116318736484980.28,1566398201710981.2,781396357887763.2
13980.849085345777,9.09019848009985e+16,9.439097431971286e+16,857421632162717.9,224773413184.492,1811285060209.8396,122348295402526.1,1647579376067985.5,859604156607858.6
15379.933993880357,9.090350605530771e+16,9.456420248694046e+16,857435980947932.4,228519874448.6244,1841475017782.9802,128268671457783.73,1727289028380604.2,945632755954163.4
16918.927393268394,9.090498369982654e+16,9.474353857930624e+16,857449918396575.0,231663413600.01764,1866806465636.548,134020068690057.89,1804722192553932.5,1040264229960070.8
18611.820132595236,9.090640241460606e+16,9.492896393874496e+16,857463300007722.9,234240016139.64862,1887569385484.6675,139542753836220.23,1879074802274565.8,1144358858618702.0
20474.00214585476,9.090774746844765e+16,9.512057957691626e+16,857475986833663.6,236299524527.0099,1904165422114.1875,144779266537899.88,1949573441516986.0,1258862948633348.2
22522.40236044024,9.090900533425546e+16,9.53186501057338e+16,857487851284035.9,237902001979.68527,1917078581862.9414,149676821971968.06,2015507681252754.2,1384817436385595.5
24775.642596484264,9.091016431591624e+16,9.552364919269302e+16,857498783038682.0,239113513726.1301,1926841236785.2131,154189759237925.34,2076263028399184.0,1523367351350561.8
27254.206856132692,9.091121513953042e+16,9.573630391684565e+16,857508694624264.9,240001772838.11395,1933999037572.0283,158281851043396.4,2131352004843963.0,1675772225993325.8
29980.627541745966,9.091215145556922e+16,9.595763505175166e+16,857517526150718.6,240632113976.98566,1939078468899.014,161928265862298.34,2180440546825987.5,1843417546760457.8
32979.69029592056,9.091297019774954e+16,9.618899026750181e+16,857525248696229.9,241064198015.9753,1942560294379.8599,165116970794089.62,2223366875553185.0,2027827350216256.5
36278.65932551262,9.091367175082006e+16,9.643206762290694e+16,857531865889826.2,241349722959.90134,1944861110544.4243,167849388477037.38,2260150328131772.0,2230678078754905.2
39907.525258063884,9.091425989386918e+16,9.668892755943706e+16,857537413376654.9,241531247990.8456,1946323870693.6182,170140177858782.84,2290988397465749.0,2453813821747977.5
43899.277783870275,9.09147415497561e+16,9.696199203990677e+16,857541956454551.0,241642064524.05957,1946334166892.3726,172016094336886.66,2316241382407094.5,2699263080720837.0
48290.20556225731,9.091512608653546e+16,9.725403639210534e+16,857545583484950.6,241706906704.95154,1946342387011.7756,173513990243651.0,2336405472742712.5,2969257209804629.5
53120.22611848305,9.09154249398278e+16,9.756816682608024e+16,857548402330984.2,241707701168.0948,1946348775502.6704,174678129312869.12,2352076595815708.5,3266250702316138.0
58433.24873033136,9.0915650579158e+16,9.790779838364522e+16,857550530607790.6,241708301001.31348,1946353598922.1543,175557081801212.38,2363908627929124.0,3592943502249121.5
64277.57360336451,9.091581576155315e+16,9.827663240694986e+16,857552088642290.2,241708740117.52542,1946357129973.1328,176200531049992.8,2372570410458464.0,3952305549375756.0
70706.33096370097,9.091593277161698e+16,9.867864027721578e+16,857553192305400.2,241709051173.77213,1946359631259.6475,176656330370411.7,2378706136695798.5,4347603777544840.5
77777.96406007107,9.091601280823715e+16,9.911805780491555e+16,857553947227347.9,241709263940.86127,1946361342176.744,176968103992995.16,2382903061740461.0,4782431813111566.0
85556.76046607818,9.091606555951432e+16,9.959939352121022e+16,857554444788298.8,241709404173.3659,1946362469823.8337,177173590842896.25,2385669210824539.0,5260742643366351.0
94113.436512686,9.09161019739481e+16,1.0012732518209654e+17,857554788256764.9,241709500976.46686,1946363248243.4702,177173655002186.44,2387422117477674.0,5786884574662589.0
103525.78016395462,9.09161433227766e+16,1.0070612363388915e+17,857555178267462.6,241709610897.02414,1946364132144.0784,177173727824330.53,2387422501127634.0,6365640830150048.0
113879.3581803501,9.091614439323336e+16,1.0134275620728592e+17,857555188364232.4,241709613742.69662,1946364155026.8882,177173729709590.44,2387422511019197.0,7002272311190817.0
125268.29399838512,9.091614441330355e+16,1.0204305110743e+17,857555188553539.0,241709613796.05112,1946364155455.9277,177173729744937.6,2387422511204667.0,7702567190853727.0
137796.12339822366,9.091614441383234e+16,1.0281337546793197e+17,857555188558526.0,241709613797.45602,1946364155467.2256,177173729745868.8,2387422511209550.5,8472891550816430.0
151576.73573804603,9.091614441410664e+16,1.0366073224581434e+17,857555188561113.9,241709613798.18466,1946364155473.0876,177173729746352.03,2387422511212084.5,9320248328419078.0
166735.40931185064,9.091614441440518e+16,1.0459282467908309e+17,857555188563929.1,241709613798.97885,1946364155479.4707,177173729746877.5,2387422511214841.5,1.0252340761382902e+16
183409.95024303574,9.091614441473346e+16,1.0561812632857248e+17,857555188567028.0,241709613799.85223,1946364155486.4941,177173729747456.22,2387422511217879.5,1.1277642410537162e+16
201751.94526733932,9.091614441509494e+16,1.067459581102127e+17,857555188570436.2,241709613800.81265,1946364155494.2136,177173729748092.12,2387422511221214.5,1.2405474191808664e+16
221928.13979407327,9.091614441549232e+16,1.0798657303033115e+17,857555188574184.5,241709613801.86902,1946364155502.7153,177173729748792.38,2387422511224889.5,1.3646089111521512e+16
244121.9537734806,9.091614441592968e+16,1.0935124939444163e+17,857555188578308.4,241709613803.03162,1946364155512.058,177173729749562.66,2387422511228931.0,1.5010765475185778e+16
268535.1491508287,9.09161444164107e+16,1.1085239333685906e+17,857555188582844.4,241709613804.31018,1946364155522.3394,177173729750409.7,2387422511233373.5,1.651190941711252e+16
295389.6640659116,9.091614441693954e+16,1.125036516032123e+17,857555188587833.9,241709613805.71628,1946364155533.647,177173729751341.0,2387422511238263.0,1.8163167682926096e+16
324929.6304725028,9.091614441752152e+16,1.1432003561113114e+17,857555188593322.0,241709613807.26318,1946364155546.0847,177173729752365.72,2387422511243637.0,1.997955169025095e+16
357423.5935197531,9.091614441816154e+16,1.1631805791690674e+17,857555188599360.9,241709613808.9649,1946364155559.7676,177173729753493.2,2387422511249555.0,2.1977573995373516e+16
393166.95287172846,9.09161444188655e+16,1.1851588232870907e+17,857555188606001.0,241709613810.83615,1946364155574.822,177173729754733.44,2387422511256061.0,2.417539840645735e+16
432484.6481589014,9.091614441964021e+16,1.2093348903098498e+17,857555188613307.6,241709613812.89572,1946364155591.3755,177173729756097.4,2387422511263220.0,2.6593005107942744e+16
475734.11297479155,9.091614442049205e+16,1.2359285622113331e+17,857555188621341.0,241709613815.16058,1946364155609.591,177173729757597.78,2387422511271087.0,2.925237229722152e+16
523308.52427227073,9.09161444214293e+16,1.2651815990964606e+17,857555188630182.4,241709613817.65195,1946364155629.6235,177173729759248.44,2387422511279744.5,3.2177675984778424e+16
