t(s),Total solute volume 1,Total retention volume 1,Total 1 volume 1,Total 2 volume 1,Total 3 volume 1,Total 4 volume 1,Total 5 volume 1,Total 6 volume 1
1.0,4979439179293902.0,5254691358970268.0,275252179676401.3,0.0,0.0,0.0,0.0,0.0
2.1,7647177551475415.0,8077482154891729.0,422716090393964.0,3422345356.697633,43193376703.04101,1234675738605.958,5176921700961.591,1130299860686.286
3.3100000000000005,9789912139759700.0,1.035136335775934e+16,541159519477606.56,9199923327.326775,116079228412.15923,3269908568388.8667,13838865257445.965,3057645544470.3525
4.641000000000001,1.1701043696161356e+16,1.2385944947872862e+16,646800781819646.6,17330098560.21094,218625983747.40775,6104152563285.965,25964710124536.746,5795651121644.498
6.105100000000002,1.3489709554566572e+16,1.4296839985481614e+16,745672592073203.4,28010598070.463654,353328514972.6038,9806626728704.994,41843364691206.88,9426508308897.377
7.7156100000000025,1.5210485406176688e+16,1.6142287889670896e+16,840791694407482.2,41543253209.04383,523993213793.5578,14480721710089.96,61900494507932.61,14064036401872.344
9.487171000000004,1.6895506152827608e+16,1.7957002710027312e+16,933934389641461.8,58312090796.04363,735462241974.3223,20256869030249.895,86665088048283.88,19846436146972.254
11.435888100000005,1.856583235463729e+16,1.976415966790953e+16,1026264830038385.6,78780060593.30458,993572445886.3746,27291590294660.453,116763653418626.73,26934887014202.24
13.579476910000007,2.0236376831429136e+16,2.158059972940955e+16,1118607343313537.9,103492964592.2901,1305204939368.312,35768846986896.52,152923936311125.88,35514073464886.92
15.937424601000009,2.1918343599618704e+16,2.3419416095282896e+16,1211581247942617.0,133087235985.3038,1678383162303.0444,45902617058546.72,195983503604295.2,45793656660500.66
18.53116706110001,2.36205542145211e+16,2.52913714607899e+16,1305674168443717.0,168300412248.5461,2122404870657.672,57940333849270.47,246901647705463.0,58010390987550.99
21.384283767210015,2.5350220729659988e+16,2.720573540198842e+16,1401284761723991.8,209983906719.38705,2648003078549.3345,72167063330498.0,306774053828692.44,72430806460001.23
24.522712143931017,2.711342005701186e+16,2.917081055819007e+16,1498748937981543.8,259117996780.0815,3267534921743.1377,88910394451187.92,376850051289504.8,89354464537455.53
27.97498335832412,2.891539636092691e+16,3.1194281290026624e+16,1598356575943324.5,316829097282.4271,3995199306771.0845,108546065049282.17,458552437695181.06,109117822007960.94
31.772481694156536,3.076075895307993e+16,3.3283456140152932e+16,1700362461783211.0,384409471401.7696,4847285261908.695,131504373163611.08,553499955533405.9,132098701859561.6
35.949729863572195,3.2653613860258184e+16,3.5445444414572304e+16,1804993561717876.8,463339586133.5822,5842453599855.181,158277444131571.6,663532582645079.4,158721172633456.53
40.544702849929415,3.459765222581975e+16,3.768729082545511e+16,1912453908532492.5,555313368362.6521,7002055118672.322,189427449662676.34,790739970624879.9,189459902328335.75
45.59917313492236,3.6596211953320184e+16,4.001608304673943e+16,2022928009057330.0,662266693103.7347,8350489532855.1,225595935364057.7,937493918948227.1,224840473823330.8
51.1590904484146,3.865233044722485e+16,4.243904177662273e+16,2136583759613941.5,786409642194.1152,9915611975889.408,267514610121276.53,1106487547107246.8,265423390937403.2
57.27499949325607,4.0768824872797544e+16,4.4963599754610184e+16,2253576882921519.5,930263785140.9012,11729203072642.975,316018650076509.94,1300788051607229.8,311731830349366.5
64.00249944258168,4.294827412751831e+16,4.759747432354632e+16,2374049931412260.5,1096702408057.0952,13827475900422.215,372061539730994.94,1524017039679876.2,364147506895997.1
71.40274938683986,4.519443270260787e+16,5.0348736560495224e+16,2498210449839673.0,1289036170643.5474,16252164946487.266,436764716648618.56,1779888888724896.0,421898601556719.94
79.54302432552385,4.751229730222024e+16,5.322587957484111e+16,2626334657639983.5,1511089057197.6775,19051488643306.074,511459586451196.8,2072006230803387.2,483219220025838.5
88.49732675807624,4.991018842976122e+16,5.623788709600807e+16,2758882522957964.5,1767359886568.4954,22282205753340.94,597771589849813.9,2400599812581833.5,546395175217360.25
98.34705943388387,5.2399437227714616e+16,5.9394301502775784e+16,2896480443131333.0,2063154177193.6316,26011280597247.234,697610972793204.4,2760626739336508.0,612071685026010.5
109.18176537727226,5.499132675578771e+16,6.270528573018884e+16,3039752137666467.0,2404617601918.0835,30316268552254.08,812991204638895.9,3146189163169354.5,682305582771937.8
121.09994191499949,5.769365661742462e+16,6.618166564051088e+16,3189128719344855.0,2798696922935.9204,35284755230055.14,945780553273465.1,3556309071008458.5,758707227306355.6
134.20993610649944,6.051104433665772e+16,6.983493048985845e+16,3344865348755271.0,3253211819732.3467,41015207372113.99,1097636795136783.5,3994767867643450.5,842347722473075.2
148.6309297171494,6.344718172435089e+16,7.36771637319717e+16,3507165969201099.5,3777047553618.5483,47619359824748.9,1270102322544951.5,4467186744412338.5,934130564084218.5
164.49402268886433,6.650594301407889e+16,7.772087838024218e+16,3676244565441824.0,4380350849597.515,55224625308097.766,1464705764460001.2,4979424473871861.0,1034955586231860.2
181.94342495775078,6.969129772153154e+16,8.197874036075917e+16,3852320346888376.0,5074695351118.0,63976096880932.74,1683037717527380.2,5537260115005605.0,1145773667574228.0
201.13776745352587,7.30067555908609e+16,8.646317656050238e+16,4035587067467776.5,5873227222539.328,74038283611100.78,1926816665609796.2,6146493960168200.0,1267611765562296.2
222.25154419887846,7.64546728334153e+16,9.118587860142246e+16,4226174682108910.0,6790793751357.062,85596622600092.5,2197949272847171.0,6813105088055273.0,1401589308644751.2
245.47669861876633,8.003551627148614e+16,9.615722749289093e+16,4424108680694302.5,7844048365832.637,98858691164575.33,2498581497880165.0,7543386532514933.0,1548931770784257.5
271.024368480643,8.374712637394518e+16,1.0138567775554011e+17,4629269364664859.0,9051521539612.371,114054994059021.16,2831137807086787.5,8344054120215483.0,1710983574029170.5
299.1268053287073,8.758401778349837e+16,1.0687715122053704e+17,4841353199132716.0,10433645841966.256,131439186531806.52,3198348761502741.0,9222337365245576.0,1889221278784285.8
330.03948586157804,9.15367623457842e+16,1.1263449847908773e+17,5059838727522342.0,12012723624213.352,151287598199912.47,3603269476868374.5,1.0186060042015404e+16,2085267565073173.5
364.0434344477359,9.559150314940246e+16,1.1865708802538371e+17,5283959729097387.0,13812827172918.6,173897940847191.16,4049292351113108.5,1.12437157091311e+16,2300906318620194.0
401.44777789250946,9.972964599677016e+16,1.2494057891924008e+17,5512688184233404.0,15859623502468.754,199587113758625.12,4540157343048672.0,1.240454160273124e+16,2538099055195594.0
442.5925556817604,1.0392776756460896e+17,1.3147692337304872e+17,5744729216435955.0,18180119295472.527,228688062563816.94,5079962449250963.0,1.367859307622277e+16,2799002884670646.5
487.8518112499365,1.0815776923192734e+17,1.3825463326197416e+17,5978529611749194.0,20802325952336.254,261545702657879.62,5673176230754326.0,1.5076819951446992e+16,3085990207486066.0
537.6369923749302,1.123872942904165e+17,1.4525933146882368e+17,6212300893507371.0,23754850532322.7,298511988444828.56,6324653505459307.0,1.661114560073274e+16,3401670339730384.5
592.4006916124232,1.1658041528814934e+17,1.5247459655553837e+17,6444057324210404.0,27066425824162.523,339940297515910.1,7039654753822345.0,1.829454919230032e+16,3748913273715957.5
652.6407607736655,1.206985874802523e+17,1.598830973530655e+17,6671668610525537.0,30765401937640.453,386179404820315.56,7823869423236126.0,2.014115123584189e+16,4130875796452648.5
718.9048368510321,1.2470185241230731e+17,1.674680011917929e+17,6892926427099232.0,34879232243076.777,437567440940907.75,8683443154597705.0,2.2166302316977852e+16,4551030207626612.0
791.7953205361354,1.285502606918774e+17,1.7521462361685555e+17,7105623047736895.0,39433997069609.1,494426347685465.7,9625008954405744.0,2.438667467700988e+16,5013195901070144.0
871.9748525897489,1.3220546371832514e+17,1.8311226706979344e+17,7307639307181187.0,44454017348279.016,557057440971484.75,1.0655722434570134e+16,2.6820356052338356e+16,5521574099059333.0
960.1723378487239,1.356324007749585e+17,1.9115617128259133e+17,7497037826107415.0,49961614683945.75,625738735012902.6,1.17833013611643e+16,2.948694491359352e+16,6080786057070422.0
1057.1895716335964,1.3880098274670594e+17,1.9934947131080598e+17,7672156043424528.0,55977071159069.37,700724638909087.4,1.3016069805519034e+16,3.240764591713951e+16,6695915087948086.0
1163.9085287969563,1.4168765113704782e+17,2.077050346520309e+17,7831692352461197.0,62518828815090.35,782248476062212.2,1.4363007087478486e+16,3.560536398121335e+16,7372552788952321.0
1281.299381676652,1.4427667670815264e+17,2.1624703263419248e+17,7974777845310325.0,69603943668169.81,870527980407038.5,1.5833801357322032e+16,3.9104794906266216e+16,8116849893066399.0
1410.4293198443174,1.4656106186556237e+17,2.2501209936833072e+17,8101026158799682.0,77248772784746.73,965773496390569.2,1.7438907011339884e+16,4.293250985590992e+16,8935572207543431.0
1552.4722518287492,1.4854292953644842e+17,2.3404994897593475e+17,8210554944933622.0,85469828647083.19,1068198089135738.2,1.9189604142332212e+16,4.7117030286167416e+16,9836162148270334.0
1708.7194770116243,1.5023332070103782e+17,2.4342336068139978e+17,8303974666104650.0,94284689127851.7,1178028230237958.0,2.109805691850283e+16,5.1688889047834504e+16,1.0826806428553656e+16
1880.5914247127869,1.5165138089618054e+17,2.532074997944414e+17,8382343628583424.0,103712812773820.06,1295513266916820.5,2.3177366282354892e+16,5.668067239172189e+16,1.1916510515910122e+16
2069.6505671840655,1.5282298628248346e+17,2.6348861396537363e+17,8447092050260538.0,113776087722926.38,1420931625402896.5,2.5441610892850988e+16,6.212703649561382e+16,1.3115180531039362e+16
2277.615623902472,1.5377893144823155e+17,2.7436221743558045e+17,8499921913525887.0,124498946991692.89,1554591746596130.5,2.7905869114445276e+16,6.806469093563014e+16,1.4433713330159888e+16
2506.3771862927197,1.5455286899013837e+17,2.8593093460842602e+17,8542693104175445.0,135907924562848.11,1696826247458283.5,3.058621270221963e+16,7.45323319659505e+16,1.5884093673920738e+16
2758.0149049219917,1.5517916358695882e+17,2.983022314894173e+17,8577304826371186.0,148030534340556.3,1847977862122714.8,3.349967566571345e+16,8.157056766280434e+16,1.747951135110651e+16
3034.816395414191,1.556910276500688e+17,3.115862125323727e+17,8605592579927580.0,160893610541034.12,2008378871847153.8,3.6664164776379416e+16,8.922168711420408e+16,1.923446792940527e+16
3339.2980349556105,1.56118901995143e+17,3.258937013380165e+17,8629238676628413.0,174521011541540.97,2178322763884693.2,4.009834629842339e+16,9.752945252822798e+16,2.1164918064168172e+16
3674.227838451172,1.5648938689585395e+17,3.413347007876201e+17,8649713171972722.0,188931002087873.88,2358031970305229.5,4.382147665943466e+16,1.0653874916033182e+17,2.3288411927633676e+16
4042.6506222962894,1.5682468134916157e+17,3.5801726676111706e+17,8668242881060829.0,204133440975288.22,2547623206362786.0,4.7853188797561144e+16,1.1629514236079312e+17,2.5624254725203e+16
4447.915684525919,1.5714250849301344e+17,3.7604674334730765e+17,8685807259850570.0,220126985741614.06,2747072985638868.5,5.221323092729531e+16,1.2684431452536816e+17,2.819368217040042e+16
4893.707252978511,1.574564280255406e+17,3.955252396963724e+17,8703155672626560.0,236896486277121.97,2956185416741158.5,5.692115533240308e+16,1.3823136524519466e+17,3.1020053517591524e+16
5384.077978276362,1.5777640209467798e+17,4.1655118941567635e+17,8720838666539610.0,254410695371975.66,3174563864148472.5,6.199595257199719e+16,1.5049995761381258e+17,3.4129063909127204e+16
5923.485776103998,1.581094767461534e+17,4.3921882659082074e+17,8739245631896953.0,272620381146010.06,3401587541765416.0,6.745562418585195e+16,1.636912941369666e+17,3.754897796704187e+16
6516.834353714399,1.5846046157915206e+17,4.636174342687707e+17,8758642363110765.0,291456899180245.94,3636393786070193.0,7.331668547679006e+16,1.7784290741353626e+17,4.1310886750933656e+16
7169.5177890858395,1.588325257051028e+17,4.898302621957102e+17,8779203994044265.0,310831278752145.0,3877866720778392.5,7.959358992275923e+16,1.9298725415916304e+17,4.544899041511043e+16
7887.469567994424,1.592276671365963e+17,5.179330596389618e+17,8801040938496062.0,330633896117102.06,4124633255009442.5,8.629806859241541e+16,2.0915010668889974e+17,5.000090913142596e+16
8677.216524793868,1.596470462287532e+17,5.479922169918173e+17,8824217317627052.0,350734838390257.06,4375067730828237.0,9.343838165261312e+16,2.2634874412221837e+17,5.500802510138691e+16
9545.938177273256,1.6009119156659763e+17,5.800625599636507e+17,8848762338175722.0,370985078016477.7,4627306729510598.0,1.01018486125405e+17,2.4458996637492723e+17,6.051586175101574e+16
10501.531995000581,1.6056013700168803e+17,6.141848201434993e+17,8874677865960288.0,391218679065160.44,4879276793169484.0,1.0903712052325955e+17,2.6386790303403795e+17,6.6574486246316904e+16
11552.68519450064,1.6105342664198986e+17,6.503829809269687e+17,8901938701506347.0,411255954856003.4,5128734061951665.0,1.1748684526504667e+17,2.8416179952916682e+17,7.323898077245358e+16
12708.953713950705,1.6157014653843562e+17,6.886615175612575e+17,8930494331536486.0,430907961613500.8,5373320573859074.0,1.2635304183604522e+17,3.0543367328008486e+17,8.056993303968264e+16
13980.849085345777,1.6210888980133875e+17,7.290027515340476e+17,8960267001352631.0,449982066333931.75,5610633970388889.0,1.3561292689856515e+17,3.276260623130631e+17,8.863398948300437e+16
15379.933993880357,1.626677221225658e+17,7.713644993658281e+17,8991149809729127.0,468288584252903.06,5838310501221392.0,1.4523462782171338e+17,3.5065993943003136e+17,9.750446109631442e+16
16918.927393268394,1.632441476436485e+17,8.156782463538331e+17,9023004822961860.0,485648199933613.3,6054117735368621.0,1.5517638561215834e+17,3.744329525001033e+17,1.0726198983965982e+17
18611.820132595236,1.63835083336585e+17,8.618481136190787e+17,9055661659387978.0,501899760065980.0,6256051813161471.0,1.653859634678733e+17,3.98818171905445e+17,1.179952816765635e+17
20474.00214585476,1.6443684865807914e+17,9.097509190699356e+17,9088916917983302.0,516907886986221.0,6442432344890799.0,1.7580035033294534e+17,4.236635500247321e+17,1.2980191290431848e+17
22522.40236044024,1.650451764886843e+17,9.592376533750435e+17,9122534783227864.0,530569758570348.56,6611986782850392.0,1.863458562008676e+17,4.487923122539133e+17,1.427892171069278e+17
24775.642596484264,1.6565525083373955e+17,1.0101366925630318e+18,9156249108882924.0,542820360479489.1,6763915612019744.0,1.9693869699097926e+17,4.740044988629264e+17,1.5707526079400474e+17
27254.206856132692,1.662617760563356e+17,1.0622590403073833e+18,9189767244262152.0,553635566208724.0,6897930336779742.0,2.074861587699864e+17,4.990798557376503e+17,1.727899165961599e+17
29980.627541745966,1.6685908123822506e+17,1.1154058261710801e+18,9222775801682540.0,563032555000771.9,7014258183781856.0,2.178884110508656e+17,5.237822235661304e+17,1.9007604377539437e+17
32979.69029592056,1.674412614148356e+17,1.16937817339261e+18,9254948461557792.0,571067336264980.6,7113610676910957.0,2.2804100449056982e+17,5.4786549422655725e+17,2.0909078678591082e+17
36278.65932551262,1.6800235478950032e+17,1.223989387043367e+18,9285955765650818.0,577829487428410.9,7197117463948696.0,2.3783803828750333e+17,5.7108108755421606e+17,2.3000700369511734e+17
39907.525258063884,1.6853655159878832e+17,1.279079202558294e+18,9315476659284302.0,583434581444533.5,7266231377318218.0,2.4717591766951126e+17,5.931867532158373e+17,2.530148374561078e+17
43899.277783870275,1.6903842622602125e+17,1.3345295866053028e+18,9343211318140454.0,588015113088985.8,7322614853052820.0,2.5595754556871466e+17,6.139563292043603e+17,2.783234443219257e+17
48290.20556225731,1.695031811019437e+17,1.3902813076316867e+18,9368894626317772.0,591710961689996.0,7368020667439027.0,2.6409671103713642e+17,6.331899013388737e+17,3.061628878982852e+17
53120.22611848305,1.6992687614198368e+17,1.4463503298632548e+18,9392308854928612.0,594660447063556.9,7404180177342289.0,2.7152236783721056e+17,6.507236758230611e+17,3.3678626058165824e+17
58433.24873033136,1.70306651901108e+17,1.5028426594239247e+18,9413295993618902.0,596993030273952.1,7432712160759939.0,2.781824253195911e+17,6.664386436101869e+17,3.704719374083874e+17
64277.57360336451,1.7064087797911142e+17,1.5599666074056435e+18,9431765951114308.0,598824140218876.2,7455058273144163.0,2.8404667875401072e+17,6.802672633561979e+17,4.0752613895184275e+17
70706.33096370097,1.7092925301860154e+17,1.61804112783923e+18,9447702080841978.0,600252520798448.0,7472450000325271.0,2.891085105094801e+17,6.921972529685719e+17,4.4828570674061766e+17
77777.96406007107,1.711728139259865e+17,1.6774993889778378e+18,9461161690137638.0,601359816960785.2,7485903617475236.0,2.9338508729120595e+17,7.022718973215155e+17,4.931211653145527e+17
85556.76046607818,1.7137385411794717e+17,1.738887135621736e+18,9472271522180254.0,602211905509624.9,7496236986162358.0,2.969159161353441e+17,7.10586554529539e+17,5.424400904250598e+17
86400.0,1.5681707102761338e+17,1.7813053275449021e+18,8667822659993223.0,551188987591841.7,6879004488843651.0,2.9494514009155514e+17,7.167708346814271e+17,5.966742656078848e+17
