t(s),Total solute volume 1,Total retention volume 1,Total 1 volume 1,Total 2 volume 1,Total 3 volume 1,Total 4 volume 1,Total 5 volume 1,Total 6 volume 1
1.0,2157760910393501.0,2158863022669161.0,1102112275666.4915,0.0,0.0,0.0,0.0,0.0
2.1,3316228686928343.5,3317937602845496.5,1693818944229.5344,6962389.800803804,26081900.660013378,353152853.4772313,5665616949.6082535,9045158843.583323
3.3100000000000005,4248840801487025.0,4251051581570297.0,2170166080332.3342,18726813.073418375,70152758.14677726,950019401.7201775,15240949134.251461,24334154833.164413
4.641000000000001,5082731872848136.0,5085404533215744.0,2596089803752.211,35297636.278661326,132228930.02244279,1790957272.8599644,28731745614.42974,45880334403.91035
6.105100000000002,5865336856026464.0,5868456552452096.0,2995818305768.458,57089458.296101496,213863550.6499005,2897168761.590225,46478153691.54861,74231844395.68452
7.7156100000000025,6620510212044146.0,6624075667017101.0,3381535648618.0254,84732442.92922328,317417284.7056231,4300844867.375847,68996599809.90399,110219729931.2427
9.487171000000004,7362428715333294.0,7366447653471671.0,3760482855345.531,119028892.79104462,445895648.11706203,6042981648.511651,96944760504.58138,154902616353.67914
11.435888100000005,8100512149153436.0,8104999236028888.0,4137471236705.033,160947918.8904518,602929039.6684805,8173133037.783643,131117594329.20802,209561034434.23233
13.579476910000007,8841554434314733.0,8846530326374759.0,4515970900520.239,211634947.1457048,792808353.2432151,10749922229.846205,172455536622.0917,275711257347.6024
15.937424601000009,9590772035275308.0,9596263005353272.0,4898646242465.27,272429108.0253264,1020550120.8963084,13841960770.87772,222059224747.13635,355129670750.33374
18.53116706110001,1.0352359064585972e+16,1.0358396962729184e+16,5287639474825.573,344885779.85242367,1291980961.7855682,17529039053.803055,281208563562.90643,449884198996.60065
21.384283767210015,1.112978363149742e+16,1.1136406057356412e+16,5684721991422.266,430802699.5366337,1613835394.6862533,21903510335.812496,351384879373.1047,562370839725.3297
24.522712143931017,1.1925927849774494e+16,1.1933178462045218e+16,6091365878898.52,532248123.6195758,1993861330.8145509,27071794374.85597,434294976918.88055,695353511063.6521
27.97498335832412,1.2743120465938494e+16,1.2751049375554744e+16,6508760582134.515,651589146.3846511,2440926154.7095404,33155908166.546436,531895618047.465,852004992602.5742
31.772481694156536,1.3583090158918402e+16,1.359175436217253e+16,6937789051300.037,791517769.8454714,2965114383.208298,40294905696.87149,646416532794.8833,1035946132169.3741
35.949729863572195,1.4446861510533368e+16,1.4456325323813604e+16,7378974607112.224,955071893.5088387,3577806293.301022,48646087271.75445,780379732474.0312,1251279975190.7385
40.544702849929415,1.5334615971830808e+16,1.5344951434970878e+16,7832409927169.425,1145648209.3471131,4291726226.1501083,58385829910.69559,936612749447.7235,1502617259087.6765
45.59917313492236,1.624554191994834e+16,1.6256829141712368e+16,8297680460104.018,1367004128.132022,5120949801.704108,69709897491.35875,1118253543948.0303,1795089908571.6248
51.1590904484146,1.7177698228072348e+16,1.7190025654983478e+16,8773794741779.954,1623246317.5241084,6080860979.98201,82833112325.30412,1328745187246.9897,2134349762505.057
57.27499949325607,1.8127913462466544e+16,1.814137806019567e+16,9259132908606.629,1918804125.5429893,7188052502.028446,97988304861.79507,1571818992435.5378,2526550666627.465
64.00249944258168,1.909173808368232e+16,1.910644542762606e+16,9751422283610.893,2258387004.2196584,8460166394.68684,115424500647.65683,1851465445039.8833,2978313161056.361
71.40274938683986,2.006346096798212e+16,2.007952524599071e+16,10247745815113.979,2646925981.8471804,9915674720.76317,135404350721.47743,2171893040490.275,3496672201563.013
79.54302432552385,2.1036195532812828e+16,2.1053739468512644e+16,10744586066814.803,3089500270.1118927,11573604644.088137,158200863952.4323,2537475974059.0317,4089009690064.8896
88.49732675807624,2.20020357660455e+16,2.2021190476748564e+16,11237904912361.293,3591251308.7306056,13453216435.478369,184093561363.30273,2952692613401.4565,4762975148212.363
98.34705943388387,2.2952278864463396e+16,2.2973183674569708e+16,11723257251673.617,4157288037.1701093,15573648615.757477,213364248160.30582,3422057893188.7134,5526399776644.45
109.18176537727226,2.3877708619248864e+16,2.390051085955198e+16,12195935754772.549,4792588978.468654,17953551157.746655,246292691392.2348,3950054243210.705,6387211473625.986
121.09994191499949,2.476893132768579e+16,2.4793786163749884e+16,12651142434207.445,5501908731.5690365,20610735203.791832,283152595766.6582,4541067330183.3545,7353361060041.825
134.20993610649944,2.561675299701824e+16,2.5643823345491184e+16,13084181308098.752,6289698420.64968,23561875067.84065,324208373844.2662,5199334546840.346,8432772670647.616
148.6309297171494,2.641258243238527e+16,2.6442039041249676e+16,13490664283863.648,7160051079.726177,26822303646.99611,369713286685.2078,5928915453830.505,9633333485260.678
164.49402268886433,2.714883958360837e+16,2.7180861368280936e+16,13866719727956.654,8116683261.977624,30405943533.068558,419909557030.38617,6733693791661.575,10962938969145.684
181.94342495775078,2.781934306270141e+16,2.785411780099148e+16,14209190396691.45,9162962738.904781,34325410778.910675,475030997642.76587,7617419726673.729,12429608795523.508
201.13776745352587,2.841964636298049e+16,2.8457371854235624e+16,14515805165549.54,10301988515.640226,38592314643.25022,535308527055.4608,8583798270365.8545,14041684988967.236
222.25154419887846,2.8947290570195844e+16,2.89881763538391e+16,14785308105419.809,11536723376.792906,43217754116.78535,600978653472.3246,9636625152091.963,15808117254764.707
245.47669861876633,2.9401943667829116e+16,2.944621337148087e+16,15017529634961.277,12870171125.007113,48212981868.46919,672294608730.9141,10779965050720.25,17738831204361.066
271.024368480643,2.9785403776499504e+16,2.9833298123709464e+16,15213388175103.934,14305581517.668886,53590171949.376335,749539351850.4847,12018359699783.168,19845164229764.938
299.1268053287073,3.010145582601297e+16,3.0153236281023096e+16,15374816941900.62,15846657173.547077,59363194874.92519,833039209711.3652,13357046153900.76,22140342852529.34
330.03948586157804,3.0355587133432144e+16,3.0411540101446036e+16,15504618673347.027,17497730338.95522,65548279798.144394,923176576326.5845,14802159967611.615,24639966786446.926
364.0434344477359,3.0554584936076664e+16,3.061502638132722e+16,15606260062776.562,19263875305.977432,72164435630.94063,1020399950004.6848,16360895759306.576,27362461167531.49
401.44777789250946,3.070605505222996e+16,3.0771335353463136e+16,15683625906959.016,21150925849.900883,79233516360.8063,1125229722716.931,18041599786250.637,30329461375067.266
442.5925556817604,3.0817912208307496e+16,3.0888421052245e+16,15740758782391.092,23165376566.83038,86779851449.62079,1238258567455.3347,19853776053172.918,33566105306501.613
487.8518112499365,3.089789642952062e+16,3.097406755408768e+16,15781612033947.252,25314161216.290344,94829415484.43053,1360145942013.7104,21807998235190.02,37101224779244.88
537.6369923749302,3.0953164883538016e+16,3.10354805248619e+16,15809841302380.93,27604317416.639935,103408572097.43011,1491607010812.0825,23915732227674.152,40967447893544.5
592.4006916124232,3.0989995303657844e+16,3.1078990267603744e+16,15828653042881.281,30042561719.003376,112542482156.73524,1633396999978.7014,26189085558470.113,45201243300675.66
652.6407607736655,3.1013618205753064e+16,3.110988360874342e+16,15840718827154.74,32634808714.36818,122253302354.4021,1786292485417.5283,28640510143602.99,49842993423114.36
718.9048368510321,3.1028174878044736e+16,3.1132361388335584e+16,15848153886010.098,35385670487.68965,132558309882.87329,1951071056388.9927,31282465717476.953,54936875650607.11
791.7953205361354,3.1036779838065396e+16,3.114960106308443e+16,15852549010315.057,38297967278.11856,143468069709.89343,2128490973903.7742,34127111564410.035,60531307433428.77
871.9748525897489,3.1041656442439996e+16,3.1163892059504056e+16,15855039815892.234,41372271626.51205,154984726627.87238,2319271036832.114,37185970883595.66,66678978329457.57
960.1723378487239,3.104430944034982e+16,3.117680851806027e+16,15856394878038.342,44606495715.191055,167100459467.6219,2524071040837.29,40469621155528.16,73437283680836.03
1057.1895716335964,3.104570304601707e+16,3.1189387609676012e+16,15857106684964.115,47995523970.8877,179796104791.4449,2743472078283.776,43987378296814.73,80868814970087.92
1163.9085287969563,3.104642134532895e+16,3.1202290262665948e+16,15857473568105.406,51530889342.65041,193039944195.66287,2977955775948.0854,47746963738006.51,89041953421360.92
1281.299381676652,3.1046798272707724e+16,3.1215931495538664e+16,15857666089939.291,55200494473.34456,206786659788.19104,3227881512390.262,51754139083176.02,98031548991104.94
1410.4293198443174,3.104701369982377e+16,3.1230576868337404e+16,15857776122868.072,58988386529.08682,220976490673.67532,3493460912923.5693,56012297113083.47,107919669487503.05
1552.4722518287492,3.104715872708839e+16,3.1246408132041956e+16,15857850197919.475,62874604295.129944,235534660155.84433,3774729363882.0776,60522005003149.29,118796411124124.11
1708.7194770116243,3.1047276624354676e+16,3.1263564529425628e+16,15857910415879.719,66835125522.1325,250371178487.8534,4071514811923.8267,65280504023328.89,130760769515752.16
1880.5914247127869,3.1047386570591464e+16,3.1282166920046636e+16,15857966572721.387,70841949154.92279,265381150906.05145,4383404638867.713,70281178395648.29,143921576747800.38
2069.6505671840655,3.1047496395132216e+16,3.1302330967241108e+16,15858022667404.773,74863349546.93086,280445729939.4462,4709711892284.699,75513013833985.47,158398514635783.8
2277.615623902472,3.1047608907869444e+16,3.1324174019018164e+16,15858080135128.62,78864337289.68733,295433841720.1439,5049442606136.186,80960073569824.17,174323216658655.5
2506.3771862927197,3.1047724809127224e+16,3.1347818725505816e+16,15858139333594.791,82807353482.94934,310204786786.1722,5401266376600.364,86601026575736.0,191840471952405.56
2758.0149049219917,3.1047843926172664e+16,3.137339519835916e+16,15858200174577.242,86653210929.1149,324611765888.0711,5763492769034.929,92408769285706.55,211109544980238.4
3034.816395414191,3.104796569896478e+16,3.1401042699144136e+16,15858262372025.754,90362276854.1837,338506310579.08246,6134056502609.821,98350188053939.36,232305624663368.34
3339.2980349556105,3.104808935814915e+16,3.1430911369015256e+16,15858325532980.062,93895867792.3275,351743508592.7745,6510514641557.752,104386114122488.84,255621417192692.12
3674.227838451172,3.1048213989547828e+16,3.14631642658555e+16,15858389190508.793,97217799491.15144,364187809945.3577,6890059143365.679,110471524814498.61,281268897549849.94
4042.6506222962894,3.10483385632715e+16,3.149797985767781e+16,15858452818578.988,100296005496.21866,375719090319.31055,7269547983985.204,116556042581770.44,309481235926159.4
4447.915684525919,3.104846195646277e+16,3.153555506509052e+16,15858515843672.992,103104111111.13347,386238547281.42395,7645557600398.987,122584775843515.78,340514916681729.56
4893.707252978511,3.1048582979634864e+16,3.157610891250778e+16,15858577658240.824,105622829447.27472,395673930032.8088,8014458470689.292,128499530799303.64,374652069185253.3
5384.077978276362,3.1048700409579404e+16,3.1619886818389236e+16,15858637637508.82,107841038552.80348,403983574451.51196,8372514226196.572,134240400542555.36,412203031790577.9
5923.485776103998,3.1048813029120308e+16,3.1667165521120508e+16,15858695159784.357,109756407991.42096,411158750329.68164,8716002744689.779,139747706605121.64,453509172332241.5
6516.834353714399,3.1048919672609384e+16,3.1718258597318916e+16,15858749629693.521,111375472856.8837,417223938649.7142,9041355270352.215,144964229533155.62,498945990864829.4
7169.5177890858395,3.104901927503143e+16,3.177352248522108e+16,15858800503262.355,112713103090.9049,422234843605.11017,9345306911395.955,149837621884504.75,548926532943756.2
7887.469567994424,3.104911092167696e+16,3.1833362882004668e+16,15858847313287.959,113791381968.11786,426274191299.6007,9625049163868.344,154322853711455.16,603905144565834.6
8677.216524793868,3.1049193894587748e+16,3.189824134725246e+16,15858889693061.469,114637981071.9892,429445642247.4941,9878372801061.314,158384503569099.84,664381602978190.9
9545.938177273256,3.1049267711523104e+16,3.196868192360797e+16,15858927396270.494,115284187735.11327,431866401966.7029,10103788034995.984,161998685114784.25,730905660949122.8
10501.531995000581,3.104933215318025e+16,3.2045277588576284e+16,15858960310902.654,115762791079.8475,433659301870.28735,10300608795779.797,165154398391492.88,804082045804941.8
11552.68519450064,3.10493872749671e+16,3.2128696385361172e+16,15858988465258.348,116106052673.71643,434945197129.74445,10468989689279.62,167854122379947.75,884575958609751.8
12708.953713950705,3.1049433400819412e+16,3.221968714875865e+16,15859012024793.08,116343971018.22043,435836465265.16675,10609907864854.209,170113524268081.66,973119123345196.2
13980.849085345777,3.1049471098332936e+16,3.2319084841685012e+16,15859031279415.703,116502997231.24867,436432194950.8841,10725087489567.29,171960248504360.8,1070516440886569.1
15379.933993880357,3.104950113664829e+16,3.24278156388655e+16,15859046621977.371,116605282490.85857,436815366853.1705,10816871199790.527,173431855716633.34,1177653308029460.0
16918.927393268394,3.1049524430767252e+16,3.2546902019564384e+16,15859058519830.252,116668452575.05016,437052009024.46875,10888049797919.447,174573092157834.28,1295503667859995.2
18611.820132595236,3.1049541977884164e+16,3.2677468239411604e+16,15859067482307.705,116705829587.42693,437192027503.80896,10941667329279.11,175432764413624.1,1425138864445137.0
20474.00214585476,3.1049554792482524e+16,3.2820746620720144e+16,15859074027573.758,116726970762.16302,437271224731.35944,10980822256965.826,176060551549224.5,1567737382208403.2
22522.40236044024,3.1049563847064024e+16,3.2978085115207896e+16,15859078652349.61,116738376534.15445,437313952050.28064,11008485824131.799,176504092832897.6,1724595558505903.0
24775.642596484264,3.1049570024363084e+16,3.3150956547768644e+16,15859081807506.258,116744233089.99794,437335891379.3744,11027355565602.857,176806639026594.94,1897139366881403.8
27254.206856132692,3.1049574084907204e+16,3.33409698538944e+16,15859083881495.729,116747089068.07565,437346590202.87604,11039755822215.287,177005457293571.72,2086937378310664.5
29980.627541745966,3.1049576651237256e+16,3.354988349847533e+16,15859085192290.828,116748409060.16602,437351535046.74316,11047589285959.219,177131054306105.47,2295715018509633.0
32979.69029592056,3.1049578207588376e+16,3.377962113744874e+16,15859085987222.709,116748986167.0155,437351556968.6811,11052335762058.904,177207156402883.34,2525370251164967.5
36278.65932551262,3.1049579111456436e+16,3.4032289502680132e+16,15859086448888.1,116748989565.63033,437351569700.08704,11055088135432.37,177251286259566.1,2777990829820519.0
39907.525258063884,3.104957961350876e+16,3.4310198409096628e+16,15859086705319.54,116748991453.38702,437351576771.7299,11056612114626.1,177275720792618.44,3055873275406990.0
43899.277783870275,3.104957988012895e+16,3.461588284534798e+16,15859086841500.18,116748992455.89989,437351580527.20074,11057416011991.686,177288609977126.03,3361543751815444.5
48290.20556225731,3.1049580015841e+16,3.4952127124320012e+16,15859086910817.3,116748992966.18782,437351582438.76904,11057819089013.158,177295072657782.7,3697781029246053.0
53120.22611848305,3.1049580082686004e+16,3.5321991170684324e+16,15859086944959.498,116748993217.53029,437351583380.31195,11058010763263.586,177298145839499.4,4067641743874024.5
58433.24873033136,3.104958011650168e+16,3.5728839026962668e+16,15859086962231.42,116748993344.6799,437351583856.6229,11058010775304.566,177299528730542.25,4474488183415677.0
64277.57360336451,3.1049580139575984e+16,3.617636971780042e+16,15859086974016.975,116748993431.44095,437351584181.63434,11058010783520.664,177299528862106.72,4922018851027156.0
70706.33096370097,3.1049580145251616e+16,3.666865295347785e+16,15859086976915.926,116748993452.78195,437351584261.57874,11058010785541.62,177299528894466.66,5414302080991632.0
77777.96406007107,3.1049580151178468e+16,3.721016390541138e+16,15859086979943.14,116748993475.06735,437351584345.0619,11058010787652.008,177299528928258.5,5955813026959229.0
85556.76046607818,3.104958015769325e+16,3.780582521812744e+16,15859086983270.69,116748993499.5636,437351584436.8245,11058010789971.758,177299528965403.38,6551474333117543.0
94113.436512686,3.10495801648595e+16,3.8461051773485736e+16,15859086986930.959,116748993526.50912,437351584537.7648,11058010792523.436,177299529006261.53,7206700881262438.0
103525.78016395462,3.104958017274233e+16,3.918179990914007e+16,15859086990957.229,116748993556.14915,437351584648.7974,11058010795330.316,177299529051205.5,7927449008982095.0
113879.3581803501,3.1049580181413412e+16,3.9974621557321944e+16,15859086995386.158,116748993588.75298,437351584770.9347,11058010798417.852,177299529100644.1,8720270648435728.0
125268.29399838512,3.1049580190951588e+16,4.084672379606887e+16,15859087000257.934,116748993624.61755,437351584905.2837,11058010801814.143,177299529155026.16,9592372877581660.0
137796.12339822366,3.10495802014436e+16,4.18060343538481e+16,15859087005616.873,116748993664.06802,437351585053.0687,11058010805550.064,177299529214846.6,1.05516834247997e+16
151576.73573804603,3.1049580212984744e+16,4.286127366255078e+16,15859087011511.709,116748993707.46384,437351585215.63165,11058010809659.535,177299529280648.78,1.1606922721885228e+16
166735.40931185064,3.104958022567997e+16,4.40220341132565e+16,15859087017996.031,116748993755.19907,437351585394.4497,11058010814179.982,177299529353031.1,1.2767683159812208e+16
183409.95024303574,3.1049580239644724e+16,4.529886723451266e+16,15859087025128.746,116748993807.70752,437351585591.15027,11058010819152.463,177299529432651.6,1.40445162670117e+16
201751.94526733932,3.104958025500584e+16,4.670337958473691e+16,15859087032974.7,116748993865.46667,437351585807.52014,11058010824622.14,177299529520233.44,1.5449028601773538e+16
221928.13979407327,3.1049580271903156e+16,4.8248338229378536e+16,15859087041605.254,116748993929.00171,437351586045.52466,11058010830638.781,177299529616573.66,1.6993987229406614e+16
244121.9537734806,3.104958029048999e+16,4.9947786760373304e+16,15859087051098.791,116748993998.88966,437351586307.3294,11058010837257.088,177299529722547.12,1.8693435741692136e+16
268535.1491508287,3.104958031093551e+16,5.181717291098133e+16,15859087061541.654,116748994075.76637,437351586595.3139,11058010844537.172,177299529839117.84,2.056282187171997e+16
295389.6640659116,3.104958033342545e+16,5.38734889241689e+16,15859087073028.771,116748994160.33014,437351586912.09595,11058010852545.215,177299529967344.62,2.2619137862269464e+16
324929.6304725028,3.104958035816431e+16,5.613542594822262e+16,15859087085664.535,116748994253.35025,437351587260.55365,11058010861354.031,177299530108393.8,2.4881074861421404e+16
357423.5935197531,3.1049580385376812e+16,5.862354386029993e+16,15859087099563.79,116748994355.67166,437351587643.85516,11058010871043.693,177299530263547.1,2.7369192746106876e+16
393166.95287172846,3.1049580415310508e+16,6.136045805827079e+16,15859087114852.893,116748994468.2245,437351588065.48505,11058010881702.256,177299530434214.34,3.010610691394702e+16
432484.6481589014,3.104958044823728e+16,6.43710449147257e+16,15859087131670.797,116748994592.03197,437351588529.27435,11058010893426.61,177299530621947.72,3.3116693737258244e+16
475734.11297479155,3.1049580484456572e+16,6.768266775579281e+16,15859087150170.373,116748994728.21925,437351589039.44025,11058010906323.285,177299530828452.66,3.642831654186749e+16
523308.52427227073,3.1049580524297404e+16,7.13254254129231e+16,15859087170519.748,116748994878.02419,437351589600.6164,11058010920509.56,177299531055606.3,4.007107415889458e+16
