t(s),Total solute volume 1,Total retention volume 1,Total 1 volume 1,Total 2 volume 1,Total 3 volume 1,Total 4 volume 1,Total 5 volume 1,Total 6 volume 1
1.0,2044462445176390.5,2045241361850040.5,778916673647.7137,0.0,0.0,0.0,0.0,0.0
2.1,3142068940546915.0,3143340984175468.5,1197092114086.9202,47159469.98686026,163548940.53961763,1972628583.8415956,29308438645.749336,43459738832.65424
3.3100000000000005,4025653818129628.5,4027389183699658.5,1533727781806.326,126839826.44430459,439880229.93936247,5306411930.920156,78839874354.54257,116924781887.802
4.641000000000001,4815676811925030.0,4817891679616645.0,1834717449103.7766,239065362.06568307,829078116.8971108,10003177358.410181,148621485788.22696,220457435892.80588
6.105100000000002,5557080109471337.0,5559812301011734.0,2117183571978.93,386637645.54841685,1340858436.3714945,16181140088.31684,240409661324.33246,356689670937.9108
7.7156100000000025,6272462086237680.0,6275764890008269.0,2389735871287.5347,573816213.5384605,1989993252.099548,24019826077.50561,356871685263.5304,529612578494.37177
9.487171000000004,6975249586906881.0,6979190140078189.0,2657489820249.9,806023560.10836,2795287760.9974427,33747845304.257298,501404083388.4354,744310111037.1606
11.435888100000005,7674358124921806.0,7679017520298778.0,2923842126803.3955,1089807674.6169562,3779450374.1287327,45641462640.62554,678111375752.3406,1006931153713.9978
13.579476910000007,8376206118751690.0,8381680388180691.0,3191238134403.876,1432903946.5648282,4969307401.345792,60027360764.49073,891847089097.0901,1324754633393.3442
15.937424601000009,9085698509537910.0,9092100174947172.0,3461546568995.22,1844348112.5829186,6396194748.777348,77287584587.60106,1148287148844.8416,1706303563960.6704
18.53116706110001,9806736400671730.0,9814196464003806.0,3736253705794.2646,2334619721.2034717,8096455450.542775,97865821110.77548,1454023073698.84,2161489656318.8042
21.384283767210015,1.054247419817894e+16,1.0551144505180648e+16,4016561336799.6045,2915802506.999029,10111995840.757093,122274459966.99626,1816666730776.1743,2701776675836.951
24.522712143931017,1.1295422708469056e+16,1.1305478638371522e+16,4303426049844.657,3601748063.715947,12490853165.363958,151101881902.0562,2244958445899.515,3340350923589.9526
27.97498335832412,1.2067448726958116e+16,1.207909215549791e+16,4597559071882.211,4408226945.336949,15287719593.477833,185019329640.88464,2748868890711.9624,4092285300985.5596
31.772481694156536,1.2859704105081722e+16,1.2873166573678728e+16,4899399244363.543,5353049118.369942,18564359938.898617,224786624572.26895,3339683819424.18,4974681499573.369
35.949729863572195,1.3672512336190762e+16,1.3688058342417816e+16,5209069813812.902,6456134912.09129,22389857709.36529,271255960843.90884,4030060256047.326,6006774203744.189
40.544702849929415,1.4505239812883886e+16,1.4523170121398576e+16,5526329382403.101,7739518892.310494,26840628536.114906,325373062014.6541,4834043528413.416,7209982394412.637
45.59917313492236,1.5356177687131512e+16,1.5376832548996782e+16,5850526898074.84,9227272351.30656,32000151366.53128,388175121631.5241,5767036568651.628,8607895853187.723
51.1590904484146,1.622245690515718e+16,1.6246219068417166e+16,6180569283855.256,10945334814.973263,37958384131.33266,460785145188.81396,6845715813053.35,10226189298966.277
57.27499949325607,1.7100013501770088e+16,1.7127310897687266e+16,6514908215443.829,12921250454.960747,44810849625.79039,544402539222.2937,8087891426358.632,12092461636082.531
64.00249944258168,1.7983614695319548e+16,1.8014922692995524e+16,6851550063128.352,15183811148.650145,52657397649.74675,640290036756.3723,9512313192445.465,14236003174863.309
71.40274938683986,1.8866950073947916e+16,1.8902793211921036e+16,7188090632727.288,17762614207.88717,61600671223.50453,749757309565.6731,11138427292500.8,16687499452890.133
79.54302432552385,1.9742787191516296e+16,1.9783740320292044e+16,7521774445864.697,20687549973.080456,71744329581.66881,874141917325.538,12986093637277.266,19478686895689.91
88.49732675807624,2.0603187474192692e+16,2.0649876281579572e+16,7849576997899.946,23988243132.88021,83191110691.99483,1014788607776.2638,15075278817998.627,22641983609343.61
98.34705943388387,2.1439776045987216e+16,2.149287699099129e+16,8168307558339.599,27693482019.098576,96040852076.24414,1173028422576.2278,17425746269713.102,26210128419415.03
109.18176537727226,2.2244057057872188e+16,2.2304296811105796e+16,8474729307574.086,31830681656.17197,110388628694.08734,1350159558812.1611,20056772579192.766,30215872477684.01
121.09994191499949,2.300776348829437e+16,2.30759180669348e+16,8765692606799.18,36425437307.78171,126323204671.02052,1547432417741.092,22986926002914.957,34691778971001.29
134.20993610649944,2.372322669562278e+16,2.3800120584060652e+16,9038275793180.764,41501232844.71763,143926021943.13483,1766041624902.6792,26233948479798.54,39670195285257.695
148.6309297171494,2.43837463890055e+16,2.447025204215869e+16,9289926134414.834,47079368911.88161,163270951158.65628,2007127881768.742,29814783542380.93,45183465274598.875
164.49402268886433,2.498393693117625e+16,2.5080975150374696e+16,9518591766025.023,53179166041.59803,184424996083.4391,2271792157823.255,33745787314507.87,51264443798028.79
181.94342495775078,2.5520022255884428e+16,2.562856398767608e+16,9722834051423.414,59818474944.10364,207450063284.8137,2561123838685.4985,38043146532939.2,57947358830335.4
201.13776745352587,2.5990050604896516e+16,2.611112072053141e+16,9901909394160.541,67014489626.23964,232405782010.89255,2876242975979.941,42723505730516.766,65269037262574.945
222.25154419887846,2.639400300507185e+16,2.652868655561031e+16,10055810566385.256,74784811145.68199,259353193262.66348,3218354823918.8022,47804776640141.72,73270470503575.4
245.47669861876633,2.6733776607942076e+16,2.688322790826211e+16,10185260361383.928,83148656626.45425,288358942624.68646,3588812627048.7705,53307069945498.43,81998649786851.77
271.024368480643,2.701303555417953e+16,2.717849023354522e+16,10291654774656.426,92128058882.42093,319499440522.3772,3989182514334.9814,59253658216161.08,91508556361074.48
299.1268053287073,2.7236936745545096e+16,2.7419726634511e+16,10376958526210.08,101748867891.92308,352864335303.75995,4421302818864.355,65671856075147.38,101865158342472.6
330.03948586157804,2.7411753672956548e+16,2.761332411441435e+16,10443561743433.281,112041357308.85254,388558616598.7458,4887329636142.414,72593696124921.53,113145253979426.27
364.0434344477359,2.7544435445698388e+16,2.7766364371423956e+16,10494111956365.936,123040264407.37566,426702753842.311,5389761274493.939,80056291614576.98,125439017861903.0
401.44777789250946,2.7642147460677052e+16,2.788616541486277e+16,10531339098045.127,134784150732.2844,467430479023.1335,5931436481953.146,88101809918442.89,138851154057499.75
442.5925556817604,2.771184243350987e+16,2.7979852690791456e+16,10557892072357.264,147314054949.37363,510884114799.51245,6515504639204.631,96777029931818.98,153501632468467.75
487.8518112499365,2.7759904824669656e+16,2.805400285699969e+16,10576203284550.963,160671502568.59888,557207672264.0206,7145369826433.547,106132511665624.86,169526068378588.8
537.6369923749302,2.779189887211139e+16,2.8114390649392636e+16,10588392644610.795,174896018556.00543,606538224734.508,7824613937633.228,116221454791025.83,187075881664690.94
592.4006916124232,2.78124330810947e+16,2.8165851996992276e+16,10596215939464.867,190022339227.43655,658996238655.6455,8556906003567.782,127098352393613.31,206318422983063.4
652.6407607736655,2.782513586430467e+16,2.821225839406069e+16,10601055552160.336,206077528253.81885,714675571954.0693,9345905082434.803,138817549143647.81,227437266877544.28
718.9048368510321,2.783272193166163e+16,2.8256582385419348e+16,10603945755612.191,223078169600.4122,773633739189.7886,10195162481914.229,151431789418629.56,250632844192781.3
791.7953205361354,2.7837119870369796e+16,2.830102475498354e+16,10605621319120.396,241027751745.00705,835882840048.3884,11108026216610.094,164990798474453.28,276123528011713.66
871.9748525897489,2.7839629226047276e+16,2.834717176945864e+16,10606577354454.47,259914294234.46185,901381328271.0792,12087547374742.691,179539892663717.44,304147230395954.94
960.1723378487239,2.7841079539836972e+16,2.839615476021395e+16,10607129907143.848,279708221964.45905,970026639534.5427,13136385355264.316,195118568199579.4,334963402053493.75
1057.1895716335964,2.7841971647308196e+16,2.8448792461255948e+16,10607469789716.863,300360476000.4873,1041648639934.3213,14256707634456.521,211759018455597.4,368855608951987.0
1163.9085287969563,2.784259114058033e+16,2.8505705500256828e+16,10607705809449.97,321800872571.16864,1116003934782.4797,15450079568275.736,229484492358102.34,406134277133349.4
1281.299381676652,2.78430915048042e+16,2.8567400736271684e+16,10607896442400.92,343936763572.8592,1192771223209.2498,16717341288523.78,248307467135867.12,447139818613952.06
1410.4293198443174,2.7843550247747304e+16,2.8634328591346196e+16,10608071218127.932,366652112104.75854,1271548092025.7795,18058470796578.12,268227614695201.56,492245986684878.25
1552.4722518287492,2.7844003900123976e+16,2.8706919304840452e+16,10608244054408.283,389807149065.21027,1351849824683.0735,19472434900749.31,289229587463627.0,541863481323956.8
1708.7194770116243,2.7844468215430356e+16,2.878560453289891e+16,10608420953140.88,413238814630.83466,1433110932180.3584,20957032123816.28,311280684998386.3,596443829646366.2
1880.5914247127869,2.784494896554429e+16,2.887082983685776e+16,10608604113344.057,436762202134.91864,1514690160271.6614,22508734026382.195,334328497096126.1,656483583715146.4
2069.6505671840655,2.7845447280261024e+16,2.896306219887424e+16,10608793965456.602,460173207409.35016,1595879677202.402,24122533546710.875,358298651146902.4,722528887069575.6
2277.615623902472,2.7845962087107384e+16,2.906279534626817e+16,10608990100878.826,483252541705.93695,1675918990330.5466,25791810998047.477,383092821781584.94,795180464748244.4
2506.3771862927197,2.7846491139218828e+16,2.917055462817737e+16,10609191663581.361,505771189381.67,1754013873193.3865,27508230286360.7,408587189409896.0,875099092536146.9
2758.0149049219917,2.7847031416967736e+16,2.928690251286652e+16,10609397503121.21,527497282305.9872,1829360205787.9324,29261679597401.16,434631559289327.1,963011602020904.4
3034.816395414191,2.7847579282622476e+16,2.9412445387917376e+16,10609606233565.016,548204223815.6379,1901172148324.9534,31040272004290.43,461049370624009.25,1059717480060860.8
3339.2980349556105,2.7848130556841844e+16,2.9547842143479704e+16,10609816262632.254,567679733182.5482,1968713507387.4607,32830421804211.543,487638830500045.1,1166096124830396.5
3674.227838451172,2.7848680587223476e+16,2.9693814909722644e+16,10610025817811.775,585735310763.0624,2031330561099.4387,34617011467066.266,514175393712968.75,1283114825629479.8
4042.6506222962894,2.7849224336703104e+16,2.9851162240392624e+16,10610232980040.678,602215465444.7615,2088484060047.493,36383661408530.63,540415769876586.3,1411837539898883.8
4447.915684525919,2.7849756502102496e+16,3.0020774947104344e+16,10610435728869.75,617005927322.8212,2139777709092.247,38113109972079.19,566103567490897.5,1553434548173493.2
4893.707252978511,2.785027166528753e+16,3.0203654674161132e+16,10610632000052.81,630040020603.3988,2184980268957.0295,39787703751681.88,590976576916009.4,1709193075916303.2
5384.077978276362,2.785076447464148e+16,3.0400935154764956e+16,10610819754686.137,641302423116.7631,2224038594669.3037,41389988705265.98,614775550393749.6,1880528980252057.0
5923.485776103998,2.7851229850470108e+16,3.0613905910251044e+16,10610997057465.342,650829708287.5657,2257079515616.922,42903380788191.54,637254163165037.8,2068999609546347.5
6516.834353714399,2.785166320391356e+16,3.0844037958097e+16,10611162160088.191,658707353815.2422,2284399462157.019,44312881973347.61,658189648679404.1,2276317954554623.5
7169.5177890858395,2.7852060655112256e+16,3.1093010905210892e+16,10611313584373.24,665063285178.0863,2306442074934.8574,45605794986129.3,677393414660071.9,2504368221507921.5
7887.469567994424,2.7852419233289148e+16,3.1362740652340852e+16,10611450198489.012,670058451532.7682,2323765522431.3784,46772379861516.15,694720794976699.1,2755222970040998.0
8677.216524793868,2.7852737039741548e+16,3.16554068607124e+16,10611571279051.846,673875335288.2368,2337002652326.282,47806389855330.78,710079009475511.9,3031161972373376.0
9545.938177273256,2.7853013355177028e+16,3.1973479370044416e+16,10611676552019.668,676705594536.5112,2346818135415.654,48705425608149.56,723432424220245.1,3334692964757073.5
10501.531995000581,2.785324867589975e+16,3.2319742935798188e+16,10611766206478.668,678738159944.1843,2353867185410.2075,49471056499651.93,734804353722820.5,3668574478124176.0
11552.68519450064,2.785344466922029e+16,3.2697319981925604e+16,10611840877654.756,680149016042.8528,2358760120075.3916,50108677394881.195,744274932879227.8,4035840952417432.0
12708.953713950705,2.7853604046769196e+16,3.310969152489762e+16,10611901598647.611,681093599030.1361,2362035996337.503,50627096293344.766,751974991965613.9,4439830358675389.5
13980.849085345777,2.7853730364179748e+16,3.3560716964619276e+16,10611949724112.178,681702297104.6244,2364147004958.8193,51037880558156.62,758076345824023.5,4884214575031150.0
15379.933993880357,2.7853827765346348e+16,3.4054653977985764e+16,10611986832824.037,682079040735.1913,2365453581157.6245,51354521420748.43,762779383938317.0,5373032787825624.0
16918.927393268394,2.7853900697341656e+16,3.459618019473465e+16,10612014619066.16,682302527036.1201,2366228650413.183,51591502296722.98,766299231898144.2,5910728217401611.0
18611.820132595236,2.7853953626331556e+16,3.5190418591008444e+16,10612034784395.875,682429323662.5691,2366668392579.7236,51763370385863.2,768851961749601.0,6502188500040801.0
20474.00214585476,2.785399078430701e+16,3.5842968541989856e+16,10612048941152.424,682497988386.4844,2366906528510.0996,51883909233583.21,770642302041411.4,7152790092949830.0
22522.40236044024,2.7854015970952584e+16,3.6559944221586056e+16,10612058536971.514,682533412013.3746,2367029381329.994,51965491825276.96,771854029430283.0,7868447108047650.0
24775.642596484264,2.78540324254928e+16,3.734802157678411e+16,10612064805960.033,682550791066.5344,2367089653812.443,52018662636770.766,772643761047315.5,8655665022356356.0
27254.206856132692,2.7854042771877604e+16,3.821449454256922e+16,10612068747812.297,682558887525.6534,2367117733285.115,52051959435920.98,773138307926476.5,9521599757960660.0
29980.627541745966,2.7854049029688892e+16,3.916734063223586e+16,10612071131965.656,682562465702.5197,2367130142846.7056,52071949702486.01,773435216157769.0,1.0474122672946184e+16
32979.69029592056,2.785405267495254e+16,4.021529565865164e+16,10612072520768.701,682563965520.6967,2367135344411.097,52083429782204.84,773605725099715.5,1.1521892056986478e+16
36278.65932551262,2.785405473104497e+16,4.136793719008673e+16,10612073304116.004,682564562604.2676,2367137415177.2603,52089721939671.5,773699179632301.6,1.2674431782187922e+16
39907.525258063884,2.7854055870310076e+16,4.263577642963754e+16,10612073738162.77,682564590521.9796,2367137511995.6147,52093005929054.04,773747955048967.6,1.3942217822508746e+16
43899.277783870275,2.7854056510743656e+16,4.403035848770047e+16,10612073982160.521,682564606215.8157,2367137566421.6855,52094634401851.78,773772141833025.1,1.5336773424567106e+16
48290.20556225731,2.7854056898129876e+16,4.556437137721159e+16,10612074129750.164,682564615708.7214,2367137599342.9893,52095399984661.586,773783512555696.5,1.6870773790196538e+16
53120.22611848305,2.7854057169027804e+16,4.725176447297141e+16,10612074232959.113,682564622347.081,2367137622364.7544,52095740519448.53,773788570284068.4,1.8558161216662484e+16
58433.24873033136,2.7854057395291212e+16,4.910787748675248e+16,10612074319162.834,682564627891.6696,2367137641593.3325,52095883606110.63,773790695440953.6,2.041427173582545e+16
64277.57360336451,2.785405761355001e+16,5.114958121131487e+16,10612074402316.906,682564633240.1042,2367137660141.654,52095884014282.516,773791538711458.2,2.2455974398343492e+16
70706.33096370097,2.7854057842778988e+16,5.339543151206805e+16,10612074489650.475,682564638857.3655,2367137679622.2593,52095884442970.11,773791545074746.6,2.470182446296323e+16
77777.96406007107,2.7854058085131464e+16,5.586583916754892e+16,10612074581983.965,682564644796.2178,2367137700218.144,52095884896200.4,773791551802337.5,2.7172231868791996e+16
85556.76046607818,2.7854058351512536e+16,5.858325412311218e+16,10612074683472.06,682564651323.8906,2367137722856.051,52095885394367.234,773791559196947.8,2.988964654995062e+16
94113.436512686,2.7854058644523804e+16,6.15723700820225e+16,10612074795105.922,682564658504.1351,2367137747757.067,52095885942335.71,773791567330797.8,3.2878762207024204e+16
103525.78016395462,2.785405896683115e+16,6.486034864198948e+16,10612074917901.312,682564666402.2834,2367137775147.776,52095886545092.016,773791576277899.0,3.616674043497583e+16
113879.3581803501,2.7854059321363616e+16,6.8477065775174104e+16,10612075052974.033,682564675090.1079,2367137805277.0625,52095887208113.02,773791586119550.0,3.9783457202949544e+16
125268.29399838512,2.7854059711342228e+16,7.24553828908064e+16,10612075201551.348,682564684646.5406,2367137838418.6772,52095887937423.086,773791596945168.9,4.376177391685697e+16
137796.12339822366,2.785406014031015e+16,7.68314449253673e+16,10612075364983.164,682564695158.4086,2367137874873.73,52095888739648.23,773791608853116.9,4.8137835509529384e+16
151576.73573804603,2.7854060612164684e+16,8.164500814658478e+16,10612075544754.244,682564706721.2114,2367137914973.4243,52095889622076.72,773791621951572.1,5.2951398244679944e+16
166735.40931185064,2.785406113119222e+16,8.693980062264203e+16,10612075742497.682,682564719439.9904,2367137959082.0205,52095890592724.766,773791636359528.1,5.824619018607637e+16
183409.95024303574,2.7854061702107436e+16,9.276391859894704e+16,10612075960009.738,682564733430.2777,2367138007600.2036,52095891660409.375,773791652207862.0,6.407030757427026e+16
201751.94526733932,2.785406233009599e+16,9.917026234397523e+16,10612076199266.07,682564748819.1484,2367138060968.6606,52095892834828.52,773791669640524.8,7.047665067239475e+16
221928.13979407327,2.785406302086138e+16,1.0621701537570806e+17,10612076462439.662,682564765746.3673,2367138119672.0854,52095894126648.445,773791688815841.9,7.752340299255654e+16
244121.9537734806,2.785406378067661e+16,1.1396817136393642e+17,10612076751920.424,682564784365.6531,2367138184243.591,52095895547600.41,773791709907951.6,8.527455819808355e+16
268535.1491508287,2.785406461644115e+16,1.2249411342422675e+17,10612077070337.016,682564804846.0791,2367138255269.5063,52095897110587.34,773791733108375.8,9.380049939743621e+16
295389.6640659116,2.7854065535743172e+16,1.3187225098009522e+17,10612077420580.387,682564827373.5897,2367138333394.697,52095898829800.02,773791758627760.1,1.0317863600631312e+17
324929.6304725028,2.785406654692817e+16,1.4218771987443733e+17,10612077805830.12,682564852152.6964,2367138419328.399,52095900720845.664,773791786697773.5,1.1349410385901304e+17
357423.5935197531,2.785406765917458e+16,1.5353415196349517e+17,10612078229583.057,682564879408.3138,2367138513850.618,52095902800888.97,773791817573201.5,1.2484053480232352e+17
393166.95287172846,2.785406888257649e+16,1.660145210307624e+17,10612078695684.953,682564909387.7998,2367138617819.1826,52095905088807.53,773791851534254.8,1.3732090260933974e+17
432484.6481589014,2.7854070228234988e+16,1.7974207251873373e+17,10612079208365.205,682564942363.1862,2367138732177.495,52095907605361.62,773791888889092.5,1.5104845271112182e+17
475734.11297479155,2.7854071708358124e+16,1.9484134529811517e+17,10612079772274.92,682564978633.6299,2367138857963.046,52095910373381.68,773791929976605.9,1.6614772396579837e+17
523308.52427227073,2.7854073336371244e+16,2.1144929448208797e+17,10612080392528.98,682565018528.1194,2367138996316.7544,52095913417975.1,773791975169471.6,1.8275567147272192e+17
