t(s),Total solute volume 1,Total retention volume 1,Total 1 volume 1,Total 2 volume 1,Total 3 volume 1,Total 4 volume 1,Total 5 volume 1,Total 6 volume 1
1.0,2739484664630522.5,2744616094171678.0,5131429541157.082,0.0,0.0,0.0,0.0,0.0
2.1,4210264694590619.5,4218154142163983.5,7886401260805.385,391320.44958189677,2063522.5548347372,46587366.23223796,1034184441.3086153,1963085910.435594
3.3100000000000005,5394312773588956.0,5404425237824835.0,10104284910778.646,1052654.4173999694,5550884.739932393,125330724.4543071,2781424329.581011,5265966514.853206
4.641000000000001,6453033037391390.0,6465135854110440.0,12087412478179.568,1984359.1824646413,10463970.81337511,236286092.50645134,5243014321.65954,9912492140.73994
6.105100000000002,7446648425609657.0,7460621920614352.0,13948589740083.752,3209878.8754624845,16926407.0540255,382261357.32498854,8481284913.697384,16021582041.642984
7.7156100000000025,8405445264109223.0,8421226771927241.0,15744547114142.225,4764818.421431987,25125946.153124426,567517282.2005603,12590766270.179749,23772529570.499077
9.487171000000004,9347424483446882.0,9364985410933472.0,17509002797917.277,6694519.097396329,35301682.6638368,797480819.8488243,17691843187.266113,33393368472.95638
11.435888100000005,1.0284551136499574e+16,1.0303885730833804e+16,19264368967263.88,9053780.84085469,47742588.69798917,1078714353.4744902,23930078090.959858,45159778150.162155
13.579476910000007,1.122546636082474e+16,1.124658556206455e+16,21026831651413.4,11907430.40943692,62790509.957723714,1418986205.6022224,31477775132.677505,59398129124.78426
15.937424601000009,1.2176833151562636e+16,1.2199760974233208e+16,22808871548891.06,15331358.11172536,80845632.61524387,1827397685.162841,40536791726.00524,76490755299.33513
18.53116706110001,1.314407101598742e+16,1.3168842317395906e+16,24620640135284.23,19413897.095241908,102373756.5109211,2314551868.9040318,51342262538.79763,96882671107.16757
21.384283767210015,1.4131785615372948e+16,1.4158444681122442e+16,26470764440412.152,24257505.213379964,127915163.79911669,2892759584.620553,64167123078.38918,121089253729.62074
24.522712143931017,1.5144031009177044e+16,1.5172630643675768e+16,28366838266520.973,29980741.737457883,158095042.17753863,3576281948.5964365,79327400785.14977,149704473673.80923
27.97498335832412,1.618446988720528e+16,1.6215070819043104e+16,30315722323805.613,36720539.3648308,193635464.98086286,4381609856.325321,97188261697.07762,183409286460.64633
31.772481694156536,1.725646246283433e+16,1.72891329320113e+16,32323710738260.516,44634763.83104067,235368887.48359972,5327779962.703391,118170782742.28262,222979872357.78824
35.949729863572195,1.83630965705407e+16,1.839791198774808e+16,34396587427287.082,53905030.24788086,284252996.5183229,6436724070.218782,142759367705.3137,269295530287.50763
40.544702849929415,1.9507162167291504e+16,1.9544204741184716e+16,36539578336508.25,64739707.67790823,341386552.2287458,7733644537.884289,171509639589.49588,323346146271.5332
45.59917313492236,2.0691069991999348e+16,2.0730428219616304e+16,38757199077588.91,77376994.26143457,408025601.4214996,9247402654.049242,205056528763.82773,386239205331.7742
51.1590904484146,2.19167153237751e+16,2.195848324050709e+16,41052999729323.55,92087890.64023523,485599154.2710115,11010900604.325195,244122148753.52167,459206266214.7182
57.27499949325607,2.318529246751169e+16,2.3229568562808224e+16,43429217345035.04,109178848.43723331,575723147.330199,13061431763.018198,289522931423.3645,543608686346.73895
64.00249944258168,2.4497072232136372e+16,2.454395795908472e+16,45886359140881.24,128993832.80329718,680211316.7889298,15440969680.695211,342175405130.1197,640942227560.9635
71.40274938683986,2.585116134414781e+16,2.590075918538505e+16,48422751847035.12,151915521.22256565,801081517.262544,18196364242.890217,403099963715.7398,752840065199.2345
79.54302432552385,2.72452676275773e+16,2.7297678723499644e+16,51034101860549.805,178365368.61619893,940556062.8092306,21379414480.724247,473422001849.2092,881073723995.9153
88.49732675807624,2.8675496644281916e+16,2.873081803673881e+16,53713114327909.84,208802300.73273808,1101054835.3746448,25046791356.613525,554369882666.4701,1027551597757.3931
98.34705943388387,3.013620400815702e+16,3.0194525597667104e+16,56449216512453.01,243719850.53248852,1285180183.8909805,29259790128.930565,647269348127.8405,1194314959329.2896
109.18176537727226,3.161992336498432e+16,3.168132471697022e+16,59228422893705.836,283641622.5264472,1495693007.7389503,34083900226.92917,753534170856.2666,1383531686453.2168
121.09994191499949,3.311738426862435e+16,3.318193143140384e+16,62033368654526.016,329115057.56092393,1735479879.846934,39588190904.784,874653074453.0183,1597488264634.3726
134.20993610649944,3.46176281879824e+16,3.4685370701867988e+16,64843526980095.64,380703579.5077536,2007511639.2696815,45844523790.97486,1012173224043.8755,1838580942440.5393
148.6309297171494,3.610822556466338e+16,3.617919384881705e+16,67635615637968.14,438977343.12851804,2314794609.6658897,52926619718.40051,1167680925582.1182,2109307198434.9104
164.49402268886433,3.7575592438034616e+16,3.764979574147787e+16,70384190060580.19,504502975.56203514,2660316513.108341,60909027763.704994,1342780586556.5112,2412258948849.8823
181.94342495775078,3.900540119280984e+16,3.90828262891241e+16,73062412731006.48,577832911.8619418,3046990245.072845,69866069304.13914,1539073482910.421,2750119207844.443
201.13776745352587,4.038307556648903e+16,4.0463686357479416e+16,75642980397677.84,659495153.5723314,3477599881.3328786,79870857614.21497,1758138417654.2087,3125664222451.7505
222.25154419887846,4.16943543018246e+16,4.177809247125371e+16,78099179869274.34,749984496.1636645,3954754430.5029373,90994520455.29478,2001516875074.0642,3541773425400.644
245.47669861876633,4.292590034439619e+16,4.3012687165381864e+16,80406029120551.03,849756425.6292567,4480855660.224472,103305773456.81917,2270705657019.7075,4001449822590.8936
271.024368480643,4.406592366461381e+16,4.4155663010489896e+16,82541443917523.8,959224913.1018656,5058086475.391147,116870998429.41025,2567160088998.125,4507853559746.166
299.1268053287073,4.510477689769041e+16,4.519735943519175e+16,84487353526355.92,1078765173.7826996,5688425469.612567,131754965300.879,2892310550294.7983,5064351268806.52
330.03948586157804,4.603547601268946e+16,4.613078447082345e+16,86230675991380.77,1208722052.3037078,6373691140.206181,148022292819.35428,3247594188316.172,5674583248187.309
364.0434344477359,4.685409542618085e+16,4.6952010740768184e+16,87764058231309.05,1349424034.52513,7115615766.219434,165739668929.75192,3634502168178.777,6342549479087.786
401.44777789250946,4.755999044998246e+16,4.766039849322439e+16,89086292709833.61,1501202002.2832265,7915944291.133383,184978750148.46478,4054640745464.24,7072713890176.364
442.5925556817604,4.815581101970138e+16,4.825860954963744e+16,90202343148441.23,1664410844.8546622,8776548265.258293,205819541230.55865,4509802044419.676,7870124242891.813
487.8518112499365,4.864728930983327e+16,4.875239473028033e+16,91122946699966.61,1839451085.9025784,9699539867.844204,228353940552.79456,5002038045178.176,8740542770438.588
537.6369923749302,4.904280846263786e+16,4.9150161982076616e+16,91863806120474.61,2026786988.8497577,10687367360.29953,252689047171.55954,5533729422979.511,9690580693762.992
592.4006916124232,4.935278689218751e+16,4.9462359716873656e+16,92444436490097.9,2226957379.752077,11742872141.42045,278949787604.42267,6107640060907.364,10727828518007.725
652.6407607736655,4.958893780199809e+16,4.970073509334588e+16,92886778193177.77,2440575828.246635,12869289692.1693,307280453122.1058,6726948684516.109,11860974151463.768
718.9048368510321,4.976348156029665e+16,4.987754501928484e+16,93213721594933.56,2668317884.9869614,14070182274.677233,337844847224.6157,7395251278967.503,13099902766898.582
791.7953205361354,4.988839441637782e+16,5.000480455437678e+16,93447699791261.52,2910894619.363001,15349299642.979757,370825171761.12964,8116594170857.166,14456758670847.885
871.9748525897489,4.9974775032837896e+16,5.009364781437305e+16,93609502035259.77,3169013777.1086354,16710373187.615486,406418116075.19293,8895147143137.572,15941834853660.102
960.1723378487239,5.003237330190657e+16,5.015386294969667e+16,93717391160309.88,3443330642.921876,18156858520.066025,444832595861.0087,9735544563722.963,17570279281020.092
1057.1895716335964,5.006932786488885e+16,5.019362407697724e+16,93786611911501.62,3734393380.33856,19691646058.577965,486283690154.3326,10642478085201.498,19357412362108.61
1163.9085287969563,5.009209296733762e+16,5.0219419284283816e+16,93829253938952.22,4042586175.247316,21316761554.318012,530987743111.977,11620665792411.787,21320050124027.41
1281.299381676652,5.010553040180369e+16,5.023614271155856e+16,93854424018902.12,4368074163.287039,23033075699.779537,579157053304.6193,12674737880317.309,23476589652424.74
1410.4293198443174,5.011311595004747e+16,5.024730138038955e+16,93868632747222.2,4710752646.526369,24840036351.766247,630994658767.7303,13809123840752.43,25847128306425.12
1552.4722518287492,5.011720529769536e+16,5.0255281645817896e+16,93876292632553.17,5070201968.334697,26735430587.209198,686689214678.8547,15027941045552.875,28453619597182.523
1708.7194770116243,5.011930989415542e+16,5.026162564637883e+16,93880234818187.38,5445648492.930056,28715178946.643272,746409803999.6233,16334881314162.094,31320065459603.53
1880.5914247127869,5.012034641063867e+16,5.02672813284192e+16,93882176349719.55,5835931792.406709,30773162408.23765,810300429443.2404,17733090114347.387,34472741792743.684
2069.6505671840655,5.012083948643407e+16,5.027280568687386e+16,93883099945455.69,6239478454.219019,32901084270.902523,878473924862.8909,19225032841615.867,37940453165182.305
2277.615623902472,5.01210719897692e+16,5.0278515430283976e+16,93883535454744.52,6654283738.850054,35088373431.62932,951005087821.1803,20812343994242.766,41754813320817.766
2506.3771862927197,5.0121187337443064e+16,5.0284589619389016e+16,93883751516090.1,7077903351.574558,37322140995.26231,1027922948483.3567,22495657494643.035,45950549942418.44
2758.0149049219917,5.012125377320085e+16,5.029113419963192e+16,93883875958991.25,7507458524.33224,39587207069.683,1109202225316.0198,24274419316640.715,50565834264578.83
3034.816395414191,5.012130170109296e+16,5.0298219551357656e+16,93883965734229.36,7939658172.424018,41866217597.95,1194754154744.2844,26146686525850.305,55642637974172.11
3339.2980349556105,5.012134375266713e+16,5.030590076563937e+16,93884044502351.72,8370841929.208862,44139871281.65255,1284417010801.6133,28108919634199.375,61227121111673.055
3674.227838451172,5.0121384771872696e+16,5.031422785749885e+16,93884121336711.83,8797047287.371544,46387273619.75793,1377946752175.8308,30155777815065.418,67370055401419.88
4042.6506222962894,5.012142641296558e+16,5.032325063806209e+16,93884199335949.05,9214102859.391531,48586428675.533485,1475008351853.1436,32279929103886.223,74127287773291.42
4447.915684525919,5.0121469098757864e+16,5.033302101840785e+16,93884279292045.31,9617747919.978865,50714869429.721115,1575168480504.2163,34471890252188.965,81560249007816.31
4893.707252978511,5.012151279144399e+16,5.034359422301044e+16,93884361134186.12,10003775958.70454,52750414740.74256,1677890324490.8467,36719913311219.01,89736512605793.39
5384.077978276362,5.012155727320068e+16,5.03550296365642e+16,93884444454359.6,10368197071.064741,54672025640.942444,1782531411138.3853,39009938035104.83,98730409240202.84
5923.485776103998,5.012160224160535e+16,5.036739161671186e+16,93884528686088.7,10707410875.058239,56460717134.40939,1888345369049.8042,41325630403637.695,108623702519656.67
6516.834353714399,5.01216473418292e+16,5.03807504221041e+16,93884613164732.19,11018378611.02384,58100465688.09342,1994488545742.4136,43648527446549.73,119506332273616.38
7169.5177890858395,5.012169218027975e+16,5.039518332622591e+16,93884697153040.22,11298780642.29805,59579039740.71922,2100032311821.8186,45958306515475.91,131477232145443.8
7887.469567994424,5.012173633473394e+16,5.041077595363993e+16,93884779860133.16,11547144280.395273,60888673731.41428,2203981673705.363,48233192615704.14,144645228938482.97
8677.216524793868,5.012177936558054e+16,5.042762385775746e+16,93884860462561.47,11762927258.215988,62026508258.160446,2305300474064.988,50450509907043.05,159130031897692.22
9545.938177273256,5.0121820829340184e+16,5.044583434543023e+16,93884938129630.0,11946544676.167585,62994732166.063614,2402942970428.67,52587372787559.12,175063320925543.72
10501.531995000581,5.012186029442555e+16,5.04655285390538e+16,93885012052919.08,12099331968.416185,63800387266.55402,2495890956155.018,54621498269329.16,192589943630496.06
11552.68519450064,5.0121897358554184e+16,5.048684365066091e+16,93885081478900.77,12223443078.968752,64454831414.75284,2583194858845.027,56532105398262.39,211869232096176.56
12708.953713950705,5.012193166684191e+16,5.0509935425722984e+16,93885145742830.6,12321690814.216757,64972896680.40381,2664016485736.507,58300850717057.19,233076451347868.12
13980.849085345777,5.0121962929298904e+16,5.053498069924874e+16,93885204301519.12,12397344030.687294,65371819908.66927,2737670383795.766,59912733411158.836,256404392689445.1
15379.933993880357,5.0121990936229096e+16,5.056217999622975e+16,93885256762178.45,12453902466.62059,65670055395.69359,2803660271899.4565,61356892609458.61,282065126399267.44
16918.927393268394,5.01220155699635e+16,5.059176010578242e+16,93885302904398.75,12494873262.72191,65886096471.255,2861706823832.7295,62627215401468.92,310291929719477.56
18611.820132595236,5.012203681146974e+16,5.062397656643773e+16,93885342692530.6,12523572639.874426,66037429735.336914,2911763360335.563,63722680249566.54,341341407663083.5
20474.00214585476,5.0122054740731464e+16,5.0659116020778136e+16,93885376276392.78,12542971702.226408,66139721970.01694,2954016824770.4653,64647378340150.7,375495825911797.3
22522.40236044024,5.012206953035574e+16,5.0697498430913096e+16,93885403979301.92,12555597733.162685,66206299668.12923,2988872764817.6514,65410184914221.19,413065677001642.4
24775.642596484264,5.0122081432617016e+16,5.073947918941758e+16,93885426273800.66,12563493254.510738,66247933150.37728,3016924804884.8965,66024091184576.484,454392503110959.1
27254.206856132692,5.0122090762025064e+16,5.078545118402047e+16,93885443749007.52,12568226503.666561,66247945480.33819,3038911035362.692,66505249934324.49,499852001104790.7
29980.627541745966,5.012209786847548e+16,5.0835847068355896e+16,93885457060322.67,12568228285.611961,66247954872.36993,3055661536480.943,66871827100609.91,549857437999816.8
32979.69029592056,5.01221031210121e+16,5.089114163439857e+16,93885466899013.7,12568229602.687487,66247961814.23069,3068042538196.9185,67142779739040.74,604863408018744.6
36278.65932551262,5.012210688011921e+16,5.095185472958065e+16,93885473940315.17,12568230545.285025,66247966782.34426,3076903182197.5034,67336690934772.87,665369965206801.2
39907.525258063884,5.012210947960422e+16,5.1018554755517816e+16,93885478809492.03,12568231197.106863,66247970217.877235,3083030349873.294,67470781233469.31,731927169319377.1
43899.277783870275,5.012211121283123e+16,5.109186289801434e+16,93885482056054.06,12568231631.714205,66247972508.54579,3087115598562.831,67560185056249.98,805140086267988.0
48290.20556225731,5.0122112324686184e+16,5.11724581854281e+16,93885484138704.31,12568231910.51225,66247973977.99629,3089736193836.254,67617535600033.33,885674288603488.8
53120.22611848305,5.012211304559373e+16,5.1261081842692136e+16,93885485489058.97,12568232091.280092,66247974930.762634,3089736238163.685,67652852585420.18,974261906578695.0
58433.24873033136,5.012211385945294e+16,5.135852904080442e+16,93885487013524.27,12568232295.355585,66247976006.375824,3089736288174.02,67652853649628.52,1071708288191803.4
64277.57360336451,5.012211387982743e+16,5.146572006745473e+16,93885487051688.38,12568232300.464525,66247976033.303154,3089736289426.003,67652853676173.664,1178899294401535.8
70706.33096370097,5.012211388030832e+16,5.158363017371121e+16,93885487052588.84,12568232300.585066,66247976033.938446,3089736289455.549,67652853676799.984,1296809400175845.2
77777.96406007107,5.0122113880340664e+16,5.171333128864625e+16,93885487052649.4,12568232300.593195,66247976033.981285,3089736289457.535,67652853676842.09,1426510515078385.2
85556.76046607818,5.012211388036594e+16,5.18560025133052e+16,93885487052697.1,12568232300.599525,66247976034.01475,3089736289459.0894,67652853676875.19,1569181739711831.8
94113.436512686,5.012211388039369e+16,5.2012940858300856e+16,93885487052748.92,12568232300.606487,66247976034.051384,3089736289460.7974,67652853676911.26,1726120084679634.8
103525.78016395462,5.01221138804242e+16,5.21855730352199e+16,93885487052806.05,12568232300.61414,66247976034.09166,3089736289462.6685,67652853676951.07,1898752261568141.2
113879.3581803501,5.012211388045774e+16,5.23754684267138e+16,93885487052868.89,12568232300.622526,66247976034.13613,3089736289464.731,67652853676994.73,2088647653028440.2
125268.29399838512,5.0122113880494584e+16,5.2584353353585576e+16,93885487052937.92,12568232300.631775,66247976034.1849,3089736289466.9985,67652853677042.75,2297532579863144.0
137796.12339822366,5.0122113880535176e+16,5.2814126768580664e+16,93885487053013.95,12568232300.641958,66247976034.23832,3089736289469.49,67652853677095.625,2527305994817639.0
151576.73573804603,5.012211388057983e+16,5.3066877519553384e+16,93885487053097.45,12568232300.65316,66247976034.2974,3089736289472.227,67652853677153.7,2780056745745532.5
166735.40931185064,5.012211388062892e+16,5.334490333894167e+16,93885487053189.45,12568232300.665464,66247976034.36233,3089736289475.2485,67652853677217.81,3058082565084533.0
183409.95024303574,5.012211388068295e+16,5.365073173218393e+16,93885487053290.61,12568232300.679012,66247976034.4337,3089736289478.5654,67652853677288.086,3363910958272608.5
201751.94526733932,5.012211388074235e+16,5.398714295496774e+16,93885487053401.84,12568232300.693892,66247976034.51217,3089736289482.22,67652853677365.53,3700322180996842.0
221928.13979407327,5.01221138808077e+16,5.435719528819292e+16,93885487053524.38,12568232300.710287,66247976034.5986,3089736289486.2354,67652853677450.61,4070374514156495.0
244121.9537734806,5.0122113880879544e+16,5.476425284041797e+16,93885487053659.03,12568232300.728308,66247976034.69353,3089736289490.6494,67652853677544.13,4477432066309338.5
268535.1491508287,5.0122113880958696e+16,5.52120161305349e+16,93885487053807.11,12568232300.748129,66247976034.79801,3089736289495.506,67652853677647.27,4925195356346918.0
295389.6640659116,5.012211388104567e+16,5.5704555728693496e+16,93885487053969.8,12568232300.76996,66247976034.91293,3089736289500.8506,67652853677760.7,5417734954418301.0
324929.6304725028,5.012211388114131e+16,5.624634926129439e+16,93885487054149.27,12568232300.793951,66247976035.03948,3089736289506.733,67652853677885.37,5959528486923145.0
357423.5935197531,5.012211388124656e+16,5.684232211645312e+16,93885487054346.33,12568232300.820353,66247976035.178604,3089736289513.2017,67652853678022.39,6555501341976347.0
393166.95287172846,5.0122113881362264e+16,5.749789221997827e+16,93885487054563.14,12568232300.849363,66247976035.33157,3089736289520.3174,67652853678173.27,7211071445385317.0
432484.6481589014,5.012211388148962e+16,5.821901928890479e+16,93885487054801.81,12568232300.881292,66247976035.499825,3089736289528.1387,67652853678339.13,7932198514184183.0
475734.11297479155,5.0122113881629656e+16,5.901225901033349e+16,93885487055064.33,12568232300.916428,66247976035.68494,3089736289536.742,67652853678521.6,8725438235472267.0
523308.52427227073,5.01221138817838e+16,5.98848226380922e+16,93885487055352.75,12568232300.95505,66247976035.88863,3089736289546.216,67652853678722.37,9598001863076442.0
575640.3766994978,5.012211388195324e+16,6.08446425489934e+16,93885487055670.31,12568232300.997562,66247976036.11266,3089736289556.628,67652853678943.25,1.0557821773807654e+16
