t(s),Total solute volume 1,Total retention volume 1,Total 1 volume 1,Total 2 volume 1,Total 3 volume 1,Total 4 volume 1,Total 5 volume 1,Total 6 volume 1
1.0,1884332709606850.5,1884793626999242.0,460917392393.0945,0.0,0.0,0.0,0.0,0.0
2.1,2896011377867087.0,2896722361447684.0,708379152366.5474,2617056.761864028,8076975.218351341,81791290.68279949,1081718864.8754034,1430224032.0363746
3.3100000000000005,3710456795950807.0,3711371399240831.5,907596653850.0912,7038550.938385533,21722952.825425487,220015501.02057895,2909777772.1419225,3848081401.1514874
4.641000000000001,4438694647684888.0,4439793584764509.5,1085727345209.7968,13265571.266551048,40941292.997516535,414743650.93555075,5485116343.38657,7255667551.620987
6.105100000000002,5122149103953504.0,5123423378423825.0,1252903789787.8257,21453257.18964196,66210799.81079364,670871253.9449192,8872479459.924755,11739665768.985931
7.7156100000000025,5781650316338043.0,5783096265132885.0,1414221148829.9958,31837542.83864942,98259632.504931,995833757.4137764,13170203087.322538,17431511995.89824
9.487171000000004,6429571875704906.0,6431189165710310.0,1572706065720.311,44718718.87814244,138014572.70030054,1399097951.0965676,18503487915.50293,24498620505.03072
11.435888100000005,7074118978967947.0,7075909650680604.0,1730365573418.8726,60459212.93077978,186594174.13585755,1892098869.1310265,25023564461.439148,33143422530.718487
13.579476910000007,7721170932337931.0,7723138897746188.0,1888637780137.418,79486716.50624765,245318413.19966555,2488345396.847764,32909088930.284378,43605388687.46485
15.937424601000009,8375163976549658.0,8377314739097559.0,2048607812880.3687,102299817.01478466,315726070.8257411,3203606250.7888074,42368601565.24292,56164501305.229
18.53116706110001,9039526441234362.0,9041866929640192.0,2211114258417.2437,129474769.99841487,399595633.39549947,4056134192.79511,53643490214.822044,71145452603.76514
21.384283767210015,9716872812838750.0,9719411270094750.0,2376796633285.9097,161672396.6415419,498966580.26652855,5066897328.360425,67011047278.19284,88922039156.5225
24.522712143931017,1.040905411583268e+16,1.0411800007594392e+16,2546107707300.248,199644123.3699037,616158023.5368867,6259787372.119794,82787221910.47427,109921243011.87128
27.97498335832412,1.1117121059302682e+16,1.1120084978732342e+16,2719304489031.735,244236167.3519666,753781625.5486575,7661774377.100124,101328664284.15831,134626484171.21725
31.772481694156536,1.1841240907411048e+16,1.1844434462659494e+16,2896427891916.328,296390926.29279596,914745888.0707358,9302979128.399721,123033681231.29265,163579559337.21478
35.949729863572195,1.2580602032588592e+16,1.2584037710662294e+16,3077279387496.547,357144786.10784197,1102249386.0824158,11216639232.67799,148341786458.64328,197380866354.36206
40.544702849929415,1.3333334461708478e+16,1.3337025468885536e+16,3261401570627.919,427621799.486643,1319761258.003717,13438952384.557852,177731627036.25052,236687643991.32184
45.59917313492236,1.409646802589481e+16,1.410042810991407e+16,3448067922724.7397,509022972.71582377,1570988141.831105,16008789135.672537,211717184825.646,282210111449.1164
51.1590904484146,1.4865942081666712e+16,1.4870185344396188e+16,3636285189614.923,602611192.0773821,1859827653.8390708,18967276629.950493,250842272362.19025,334705552036.90607
57.27499949325607,1.5636673347593574e+16,1.564121405884054e+16,3824809974742.221,709692112.5378731,2190309405.8483763,22357263826.909397,295673462490.1638,394970544392.47626
64.00249944258168,1.6402682360931952e+16,1.6407534784836678e+16,4012179671111.2437,831591636.2070668,2566525497.6433754,26222688226.980022,346791716545.0284,463831711706.4153
71.40274938683986,1.7157274947039936e+16,1.7162453192624256e+16,4196756849634.162,969630959.0626959,2992553504.4552727,30607875101.802937,404783121120.72076,542135553967.5501
79.54302432552385,1.78932726677231e+16,1.7898790575129692e+16,4376785627969.0957,1125100588.9788465,3472376289.6715817,35556813628.62069,470229320484.64813,630738167628.974
88.49732675807624,1.8603284648304724e+16,1.8609155722357828e+16,4550458160799.99,1299235231.9975948,4009804497.240012,41112470082.847595,543698439872.7978,730495942623.121
98.34705943388387,1.9280011484136556e+16,1.9286248887074724e+16,4715988976905.589,1493191951.9747326,4608409146.641935,47316214730.44449,625737512727.1243,842258632668.5967
109.18176537727226,1.991656936735196e+16,1.9923185982647e+16,4871694262197.245,1708034419.8126369,5271473022.01192,54207452887.72529,716867607579.4751,966866464915.2418
121.09994191499949,2.050681899020268e+16,2.0513827568808876e+16,5016072311128.806,1944726227.162207,6001970036.668638,61823556975.59025,817582934246.4431,1105153107576.543
134.20993610649944,2.104567966108814e+16,2.1053093059737016e+16,5147880361052.583,2204135976.0969915,6802580941.459638,70200189957.88983,928355123845.216,1257956257078.806
148.6309297171494,2.152940543586295e+16,2.1537236953712964e+16,5266202135318.077,2487056029.40744,7675751193.426418,79372086756.3091,1049643562566.8672,1426137258147.5757
164.49402268886433,2.1955798211965944e+16,2.1964062026848744e+16,5370499967157.427,2794235351.6256833,8623792312.206228,89374316785.71033,1181912084866.7422,1610610486369.9055
181.94342495775078,2.2324333885068536e+16,2.23330455838996e+16,5460645658224.885,3126424848.4407415,9649021809.76931,100243989097.41805,1325651516809.6187,1812382220179.3076
201.13776745352587,2.263618265399346e+16,2.2645359849658988e+16,5536925445420.146,3484431239.122451,10753929483.643785,112022294031.7712,1481407116729.2837,2032602448617.017
222.25154419887846,2.289411356554309e+16,2.290377655129986e+16,5600016651417.6455,3869173140.1372466,11941350389.25487,124756658006.74742,1649805213752.9197,2272596710010.8276
245.47669861876633,2.3102285524738676e+16,2.311245799525917e+16,5650936565761.165,4281731227.967314,13214619835.535229,138502858670.8338,1831584008414.802,2533950736582.8145
271.024368480643,2.326594102374926e+16,2.3276650772783108e+16,5690967528647.471,4723383519.769535,14577682147.854357,153326697329.80768,2027613747670.4797,2818539994523.258
299.1268053287073,2.3391031791470756e+16,2.3402311382618764e+16,5721565363132.983,5195617486.606551,16035128083.667131,169305062825.61407,2238911278810.925,3128578697634.3555
330.03948586157804,2.3483815440637536e+16,2.349570281600443e+16,5744260712983.508,5700112903.321401,17592141902.298748,186526147216.00906,2466642898584.2905,3466653353315.916
364.0434344477359,2.355046623914226e+16,2.356300524443203e+16,5760563835377.13,6238692873.5161295,19254350214.429398,205088722581.11017,2712114789894.3506,3835744898850.238
401.44777789250946,2.3596740263278468e+16,2.360998107907575e+16,5771882695699.738,6813244667.304002,21027577665.55069,225100507070.0994,2976751417427.1167,4239240354748.652
442.5925556817604,2.362772557465134e+16,2.3641725056368344e+16,5779461859558.564,7425615966.536094,22917526720.142227,246675767562.12866,3262063830231.29,4680937116931.3125
487.8518112499365,2.364769356487935e+16,2.3662515505870132e+16,5784346130947.986,8077494891.3832035,24929407390.625767,269932389740.19482,3569610922270.538,5165044645523.397
537.6369923749302,2.3660051338001708e+16,2.367576667942869e+16,5787368904747.481,8770283135.120708,27067545696.28237,294988672247.3679,3900957044097.233,5696188977022.957
592.4006916124232,2.36673804719945e+16,2.3684067487577324e+16,5789161647985.673,9504970542.858467,29334996578.50037,321960064157.6392,4257628863944.2554,6279425039588.115
652.6407607736655,2.3671537643689744e+16,2.3689282126955316e+16,5790178513205.187,10282017016.34654,31733179426.219013,350955977305.27246,4641073217272.6455,6920260361365.728
718.9048368510321,2.367378891704135e+16,2.369268439381142e+16,5790729186051.68,11101244637.333889,34261545138.546253,382076694930.15405,5052616228392.746,7624691870925.001
791.7953205361354,2.367495173042203e+16,2.3695099711676936e+16,5791013616084.966,11961740419.025621,36917275988.53026,415410298605.15375,5493422672407.965,8399255651358.513
871.9748525897489,2.3675525051719224e+16,2.3697035333754396e+16,5791153853373.533,12861768912.3236,39695015901.43686,451029473373.14874,5964453725533.783,9251088198085.344
960.1723378487239,2.3675796352852736e+16,2.3698787364711484e+16,5791220215002.749,13798694307.22166,42586630037.63985,488988039101.21136,6466421094281.87,10187997186000.203
1057.1895716335964,2.367592168770582e+16,2.3700520881498124e+16,5791250872541.618,14768913445.595139,45580998051.05273,529317091094.25934,6999735977258.984,11218539939948.531
1163.9085287969563,2.3675980732753124e+16,2.370232501111543e+16,5791265315258.811,15767803699.106937,48663853225.40634,572020700679.572,7564452208076.927,12352108481363.857
1281.299381676652,2.3676011676472296e+16,2.370424785284332e+16,5791272884248.989,16789692254.887003,51817687680.84524,617071209179.4764,8160204021445.447,13599020876231.566
1410.4293198443174,2.3676031662722148e+16,2.3706316953698164e+16,5791277772986.772,17827855389.946533,55021750134.08755,664404232532.1395,8786139993148.324,14970619371849.166
1552.4722518287492,2.367604787586904e+16,2.3708550429982576e+16,5791281738804.503,18874557406.357193,58252166062.74808,713913571833.0825,9440855736176.873,16479376343222.902
1708.7194770116243,2.3676063105035132e+16,2.3710962578382824e+16,5791285463935.542,19921138829.141335,61482209908.11858,765446296341.488,10122328877763.166,18139009360887.926
1880.5914247127869,2.367607832922691e+16,2.3713566525188508e+16,5791289187849.826,20958162124.359116,64682754801.34697,818798331792.7363,10827860718776.398,19964606806307.023
2069.6505671840655,2.3676093828460588e+16,2.3716375426211664e+16,5791292979040.757,21975620495.43274,67822916966.712074,873710948951.0725,11554029798074.055,21972765487554.875
2277.615623902472,2.3676109625370492e+16,2.3719403029959664e+16,5791296843044.822,22963211203.6279,70870899264.56252,929868602522.9816,12296663314209.484,24181741718903.742
2506.3771862927197,2.367612564762379e+16,2.3722664002955212e+16,5791300762169.001,23910669351.983257,73795021341.49844,986898611799.8344,13050832902376.82,26611617364396.844
2758.0149049219917,2.367614178364751e+16,2.372617419850427e+16,5791304709121.98,24808151355.748474,76564903127.21756,1044373190737.0732,13810881480545.16,29284482421916.227
3034.816395414191,2.3676157901287284e+16,2.3729950947070076e+16,5791308651578.196,25646649841.832767,79152745330.35103,1101814312859.9658,14570487583611.902,32224635839534.152
3339.2980349556105,2.367617385509975e+16,2.3734013401521612e+16,5791312553961.412,26418414242.545757,81534627508.81293,1158701820573.0125,15322772601844.605,35458806403715.71
3674.227838451172,2.3676189490965532e+16,2.373838295162127e+16,5791316378573.241,27117344964.703434,83691724586.70734,1214485045452.6711,16060454448869.0,39016395713335.94
4042.6506222962894,2.3676204650686544e+16,2.374308371314464e+16,5791320086717.676,27739325047.188187,85611330443.48802,1268597986347.111,16776048278382.209,42929745451127.03
4447.915684525919,2.367621917723974e+16,2.3748143091011548e+16,5791323639986.038,28282453032.08427,87287576620.89793,1320477793823.7817,17462110924247.693,47234431384074.64
4893.707252978511,2.3676232920702976e+16,2.375359241019888e+16,5791327001706.6455,28747145477.842884,88721748708.96646,1369585942856.5205,18111520890026.3,51969586767085.75
5384.077978276362,2.3676245744610164e+16,2.3759467602432456e+16,5791330138499.198,29136087640.50748,89922134136.21907,1415431066536.7693,18717780303929.504,57178258091539.72
5923.485776103998,2.3676257532344344e+16,2.3765809931069096e+16,5791333021838.584,29454025895.6261,90903381527.23637,1457592016008.0269,19275319865239.254,62907796414282.43
6516.834353714399,2.3676268193076556e+16,2.3772666731971292e+16,5791335629507.582,29707413865.86207,91685408554.72736,1495739367126.5662,19779783249958.973,69210287825754.516
7169.5177890858395,2.367627766670301e+16,2.3780092145593028e+16,5791337946804.535,29903943239.620792,92291953915.28523,1529653386049.7288,20228264688871.152,76143026971156.25
7887.469567994424,2.367628592723282e+16,2.378814781599297e+16,5791339967371.9,30052006464.900036,92748919052.37611,1559236468839.6538,20619473469373.984,83769037929040.58
8677.216524793868,2.3676292984158916e+16,2.37969035369364e+16,5791341693531.713,30160148417.011948,93082675848.93437,1584518344061.7693,20953802734448.363,92157647181124.11
9545.938177273256,2.367629888150298e+16,2.3806437833993216e+16,5791343136051.881,30236565208.35599,93318519812.92316,1605652897535.005,21233287492212.98,101385113879449.6
10501.531995000581,2.3676303694455964e+16,2.381683848418679e+16,5791344313324.54,30288699727.69005,93479421796.77733,1622906317194.5154,21461447841946.727,111535323136807.97
11552.68519450064,2.3676307523819764e+16,2.3828202989983176e+16,5791345250006.281,30322966684.29165,93585179405.00162,1636637271926.9124,21643026856808.152,122700548638532.36
12708.953713950705,2.367631048873791e+16,2.3840639040045644e+16,5791345975240.246,30344618366.5174,93652002685.87273,1647270879145.6694,21783646328518.344,134982291503803.84
13980.849085345777,2.367631271844773e+16,2.385426500247572e+16,5791346520638.553,30357740689.807384,93692501933.1279,1655269091231.6519,21889415155054.97,148492203018379.97
15379.933993880357,2.3676314343928004e+16,2.3869210504509744e+16,5791346918239.239,30365351987.612953,93715992581.5185,1661100651999.4023,21966532042586.133,163353099624402.47
16918.927393268394,2.367631549032043e+16,2.388561715388073e+16,5791347198652.634,30369567543.784782,93729002999.3779,1665213804608.8047,22020924592980.543,179700079393439.3
18611.820132595236,2.367631627087038e+16,2.3903639450742724e+16,5791347389579.105,30371791962.92854,93735868197.37552,1668014433800.7065,22057960255442.586,197681750133411.5
20474.00214585476,2.367631678286303e+16,2.3923445926429744e+16,5791347514815.103,30372907706.46338,93739311703.85208,1669851382565.4255,22082252153529.023,217461580296413.66
22522.40236044024,2.3676317105708696e+16,2.3945220529203452e+16,5791347593784.779,30373438501.408867,93740949890.52763,1671009492336.151,22097567048688.746,239219384971559.1
24775.642596484264,2.3676317300997036e+16,2.396916426130544e+16,5791347641553.277,30373677472.90694,93741687425.81769,1671709735408.9885,22106827091900.645,263152960474642.12
27254.206856132692,2.3676317414098296e+16,2.399549705925565e+16,5791347669218.423,30373677618.001278,93741687873.61856,1672114887553.842,22112184839103.863,289479882396007.8
29980.627541745966,2.3676317476685332e+16,2.4024459906357388e+16,5791347684527.526,30373677698.292355,93741688121.41888,1672338694952.8674,22115144475735.363,318439483451059.06
32979.69029592056,2.3676317509758268e+16,2.4056317160253172e+16,5791347692617.337,30373677740.72072,93741688252.3643,1672456464182.9226,22116701859567.383,350295029112559.25
36278.65932551262,2.367631752645857e+16,2.4091359096417772e+16,5791347696702.304,30373677762.145046,93741688318.48589,1672515362961.086,22117480738537.273,385336110794925.06
39907.525258063884,2.3676317534561988e+16,2.4129904669392068e+16,5791347698684.444,30373677772.54072,93741688350.56938,1672543296119.7136,22117850127232.805,423881278341966.5
43899.277783870275,2.367631753857028e+16,2.4172304496559456e+16,5791347699664.91,30373677777.682816,93741688366.43974,1672543296402.8652,22118015883472.496,466280935743457.3
48290.20556225731,2.3676317541170496e+16,2.4218944089812636e+16,5791347700300.928,30373677781.0186,93741688376.73483,1672543296586.5461,22118015885901.145,512920526393125.9
53120.22611848305,2.3676317541630524e+16,2.427024760065453e+16,5791347700413.442,30373677781.608696,93741688378.55609,1672543296619.0354,22118015886330.746,564224036774507.1
58433.24873033136,2.367631754210168e+16,2.4326681415008812e+16,5791347700528.703,30373677782.213146,93741688380.42148,1672543296652.3203,22118015886770.777,620657850657032.4
64277.57360336451,2.367631754261947e+16,2.4388758553279276e+16,5791347700655.356,30373677782.87746,93741688382.47163,1672543296688.9,22118015887254.383,682734988408989.8
70706.33096370097,2.3676317543189096e+16,2.4457043335779004e+16,5791347700794.688,30373677783.60817,93741688384.72685,1672543296729.133,22118015887786.355,751019770338451.6
77777.96406007107,2.3676317543815624e+16,2.4532156512315676e+16,5791347700947.958,30373677784.411983,93741688387.20784,1672543296773.3933,22118015888371.516,826132946247752.9
85556.76046607818,2.36763175445049e+16,2.4614780904608284e+16,5791347701116.542,30373677785.296146,93741688389.9367,1672543296822.0815,22118015889015.26,908757337850243.2
94113.436512686,2.3676317545263028e+16,2.4705667612834016e+16,5791347701301.98,30373677786.268757,93741688392.93837,1672543296875.6372,22118015889723.36,999644045316891.4
103525.78016395462,2.367631754609702e+16,2.480564284269425e+16,5791347701505.975,30373677787.33858,93741688396.24007,1672543296934.5464,22118015890502.195,1099619274342152.0
113879.3581803501,2.367631754701432e+16,2.4915615415023296e+16,5791347701730.354,30373677788.51541,93741688399.87196,1672543296999.3472,22118015891358.934,1209591845752691.5
125268.29399838512,2.367631754802341e+16,2.5036585026159772e+16,5791347701977.188,30373677789.80997,93741688403.86732,1672543297070.6257,22118015892301.36,1330561455878812.2
137796.12339822366,2.367631754913342e+16,2.516965133411556e+16,5791347702248.689,30373677791.233944,93741688408.26219,1672543297149.035,22118015893338.023,1463627762723243.0
151576.73573804603,2.367631755035437e+16,2.531602395307157e+16,5791347702547.347,30373677792.80032,93741688413.09634,1672543297235.2874,22118015894478.387,1610000380456720.2
166735.40931185064,2.367631755169748e+16,2.547703344697166e+16,5791347702875.88,30373677794.523308,93741688418.41397,1672543297330.1587,22118015895732.734,1771009873012035.8
183409.95024303574,2.367631755317483e+16,2.5654143422051708e+16,5791347703237.246,30373677796.4186,93741688424.26338,1672543297434.518,22118015897112.516,1948119846612791.2
201751.94526733932,2.3676317554799948e+16,2.5848963828107132e+16,5791347703634.764,30373677798.50337,93741688430.69774,1672543297549.3164,22118015898630.266,2142940251041072.8
221928.13979407327,2.36763175565876e+16,2.6063265589265844e+16,5791347704072.0205,30373677800.796722,93741688437.77547,1672543297675.5945,22118015900299.832,2357242010409982.5
244121.9537734806,2.3676317558553948e+16,2.6298996697085744e+16,5791347704553.01,30373677803.319305,93741688445.56093,1672543297814.4973,22118015902136.312,2592973116261036.0
268535.1491508287,2.3676317560716948e+16,2.6558299912051304e+16,5791347705082.097,30373677806.094143,93741688454.12502,1672543297967.2905,22118015904156.457,2852276329060834.5
295389.6640659116,2.3676317563096244e+16,2.684353223411852e+16,5791347705664.079,30373677809.146515,93741688463.54521,1672543298135.3604,22118015906378.605,3137508648745803.5
324929.6304725028,2.3676317565713456e+16,2.715728631898158e+16,5791347706304.26,30373677812.504055,93741688473.90758,1672543298320.24,22118015908822.918,3451262730988405.0
357423.5935197531,2.3676317568592416e+16,2.7502414034353024e+16,5791347707008.467,30373677816.197323,93741688485.30608,1672543298523.606,22118015911511.664,3796390443477305.0
393166.95287172846,2.3676317571759156e+16,2.7882052369920412e+16,5791347707783.076,30373677820.259922,93741688497.84433,1672543298747.308,22118015914469.3,4176028775873934.5
432484.6481589014,2.3676317575242668e+16,2.829965193593798e+16,5791347708635.151,30373677824.728756,93741688511.63626,1672543298993.3767,22118015917722.65,4593628338403660.0
475734.11297479155,2.3676317579074388e+16,2.8759008308819896e+16,5791347709572.42,30373677829.644382,93741688526.80728,1672543299264.05,22118015921301.29,5052984707449000.0
523308.52427227073,2.36763175832893e+16,2.9264296507836532e+16,5791347710603.408,30373677835.051594,93741688543.4955,1672543299561.7866,22118015925237.812,5558272902245417.0
575640.3766994978,2.36763175879257e+16,2.9820108915297348e+16,5791347711737.49,30373677840.99942,93741688561.85233,1672543299889.2976,22118015929567.934,6114085305064061.0
