t(s),Total solute volume 1,Total retention volume 1,Total 1 volume 1,Total 2 volume 1,Total 3 volume 1,Total 4 volume 1,Total 5 volume 1,Total 6 volume 1
1.0,5814614257372316.0,6799275496780043.0,984661239407722.4,0.0,0.0,0.0,0.0,0.0
2.1,8495699199742348.0,1.0588553032305668e+16,1438631217400309.8,1366031620237.9453,20817388684993.26,164791469235005.66,388966203083906.7,78281522538901.89
3.3100000000000005,1.039449241665304e+16,1.3763861270854916e+16,1760136100866234.0,3509297375832.498,53308770740491.44,402280974191689.4,957301606625010.4,192832104402615.62
4.641000000000001,1.1909809843927372e+16,1.672355455933368e+16,2016710840189759.8,6336956008975.806,96076366269250.33,697489720777906.4,1662115170250725.2,335015661909672.1
6.105100000000002,1.318128183039521e+16,1.9623494495941132e+16,2231998407556983.8,9832730604109.572,148892847224093.34,1050212196782898.0,2497635069870708.5,503641413507192.25
7.7156100000000025,1.427389583783612e+16,2.25491756384266e+16,2417002397260179.5,14005545765211.287,211907067589386.88,1463474728184177.0,3469138115332199.5,699751946459350.2
9.487171000000004,1.5223944221274684e+16,2.555843084086442e+16,2577867666434404.0,18876543832919.11,285449668534044.44,1941100548679488.2,4585962733062659.0,925229459046255.2
11.435888100000005,1.605437766054819e+16,2.869664821225836e+16,2718480095399005.0,24474544228642.62,369966399197253.4,2487419301250462.0,5859533056256512.0,1182397155378288.2
13.579476910000007,1.6781047168946648e+16,3.2003482385368096e+16,2841523476663180.5,30834067920684.984,465988917580861.3,3107282560141246.0,7302883259724657.0,1473922934390800.8
15.937424601000009,1.7415780744253224e+16,3.551629277663297e+16,2949000441471378.5,37994663102245.17,574124736362341.9,3806090973357512.5,8930512382357164.0,1802788835729185.2
18.53116706110001,1.7968048462625754e+16,3.927212688036639e+16,3042514385366257.5,46000968480635.42,695058007822086.1,4589815641289465.0,1.0758396180585154e+16,2172293234197114.2
21.384283767210015,1.844592228242806e+16,4.330898783797647e+16,3123431978553344.0,54903279879070.695,829557770294471.8,5465028857048568.0,1.2804074263874116e+16,2586069405898848.0
24.522712143931017,1.885664298624431e+16,4.766672398624159e+16,3192979160050543.0,64758488509167.164,978491770676684.6,6438952428759561.0,1.5086784447712104e+16,3048114704289282.0
27.97498335832412,1.920694921171537e+16,5.238770978347457e+16,3252296850598943.0,75631298188619.86,1142844540401155.0,7519526312469272.0,1.7627633556879406e+16,3562828013221844.0
31.772481694156536,1.9503252996607068e+16,5.751741050587555e+16,3302470678229073.5,87595639670879.2,1323738547274268.5,8715497927306254.0,2.0449800292359908e+16,4135054424428151.0
35.949729863572195,1.9751712704476564e+16,6.310488555920471e+16,3344543328384921.0,100736201368379.9,1522457241167407.0,1.003653132266912e+16,2.3578768170431564e+16,4770136590706781.0
40.544702849929415,1.9958237705184492e+16,6.920326608804384e+16,3379515338279483.5,115149997580546.2,1740468815685321.8,1.1493334446910882e+16,2.7042587376932916e+16,5473972407470089.0
45.59917313492236,2.0128450724107324e+16,7.587023239637077e+16,3408338722862416.5,130947903972022.25,1979449614880914.0,1.3097801976651024e+16,3.087216468061416e+16,6253078773283009.0
51.1590904484146,2.0267628814197444e+16,8.316851098646363e+16,3431906980217565.0,148256108051301.25,2241306366024382.8,1.4863170642516916e+16,3.5101580805338428e+16,7114661270117642.0
57.27499949325607,2.038064006785026e+16,9.116640745630485e+16,3451044374685672.5,167217448977974.44,2528196807581751.5,1.6804183928372334e+16,3.9768435098129896e+16,8066689730706989.0
64.00249944258168,2.0471889316696516e+16,9.993838886814077e+16,3466496741079859.5,187992652433901.53,2842548751293848.5,1.893726355423137e+16,4.491421801662399e+16,9117979835781088.0
71.40274938683986,2.054528181936193e+16,1.0956572695411522e+17,3478925334159424.5,210761496931580.25,3187078083990888.5,2.1280686261614988e+16,5.058471285947399e+16,1.0278281098582294e+16
79.54302432552385,2.0604209501328644e+16,1.2013721149708851e+17,3488904496458854.5,235723972028803.47,3564806589408475.5,2.385476592968597e+16,5.68304291816858e+16,1.1558371826492026e+16
88.49732675807624,2.0651560167735532e+16,1.3174994148590765e+17,3496923215990394.0,263101502288386.12,3979080686458365.5,2.6682042675960284e+16,6.370707136127459e+16,1.2970161876200104e+16
98.34705943388387,2.0689746782318144e+16,1.445102003603229e+17,3503390081833689.5,293138312076960.4,4433592213812399.5,2.9787482030874492e+16,7.127604671811835e+16,1.452680422128886e+16
109.18176537727226,2.0720751758765172e+16,1.585344209815892e+17,3508640782025813.0,326102997051372.56,4932402262934526.0,3.319868828934582e+16,7.960501837098787e+16,1.6242816520478316e+16
121.09994191499949,2.0746180343551976e+16,1.7395024595308733e+17,3512947141250531.5,362290352248547.3,5479968828878912.0,3.69461366384651e+16,8.876850863671544e+16,1.8134214011976824e+16
134.20993610649944,2.0767317415907236e+16,1.9089768952302176e+17,3516526737520160.0,402023488686699.94,6081178779585676.0,4.1063428684877416e+16,9.884855924362147e+16,2.021865517282298e+16
148.6309297171494,2.0785183046505988e+16,2.0953040839116595e+17,3519552309024306.5,445656254311186.3,6741384401237992.0,4.558757570625904e+16,1.0993545498948933e+17,2.2515601684338144e+16
164.49402268886433,2.080058354073132e+16,2.3001709013462822e+17,3522160396684926.0,493575963469846.06,7466444598333489.0,5.055931351467594e+16,1.2212851777139526e+17,2.504649434933738e+16
181.94342495775078,2.0814156094928824e+16,2.525429694923584e+17,3524458905442539.0,546206432625073.0,8262770725031154.0,5.602345241115632e+16,1.3553697819743307e+17,2.783494672574199e+16
201.13776745352587,2.0826406378807636e+16,2.7731148427646928e+17,3526533467907214.0,604011318035849.6,9137376990102816.0,6.2029265440798376e+16,1.502809322963951e+17,3.0906958384422184e+16
222.25154419887846,2.0837739214279476e+16,3.045460841381896e+17,3528452639153644.0,667497752213219.0,1.0097935390155168e+16,6.863091807329983e+16,1.6649239119557254e+17,3.429114987351616e+16
245.47669861876633,2.084848304357695e+16,3.344922067862083e+17,3530272039933648.0,737220278428020.2,1.1152835160295886e+16,7.588794253125571e+16,1.843164320508262e+17,3.8019021681892216e+16
271.024368480643,2.085890912353058e+16,3.674194375482019e+17,3532037606913691.0,813785085032827.6,1.2311246767022404e+16,8.386576023430218e+16,2.0391245898744803e+17,4.2125239743951576e+16
299.1268053287073,2.0869246429343576e+16,4.0362386941194477e+17,3533788116422201.5,897854542875522.5,1.3583190489917378e+16,9.263625617743432e+16,2.254555833372717e+17,4.664795031867986e+16
330.03948586157804,2.0879693178681468e+16,4.4343068191101235e+17,3535557135920261.5,990152049066580.2,1.4979609637976156e+16,1.0227840947630482e+17,2.491381330238628e+17,5.162912740920049e+16
364.0434344477359,2.0890425757490684e+16,4.8719695845442816e+17,3537374535503071.0,1091467178548848.9,1.6512448418779736e+16,1.1287898476052003e+17,2.7517130153739254e+17,5.71149562661932e+16
401.44777789250946,2.0901605684505532e+16,5.353147629502746e+17,3539267667284001.5,1202661141196975.2,1.8194734422387884e+16,1.245332895581295e+17,3.037869475364605e+17,6.315625694030998e+16
442.5925556817604,2.0913385115869336e+16,5.882144978380023e+17,3541262297565466.5,1324672536473580.8,2.0040665595554e+16,1.3734600327925638e+17,3.352395566972383e+17,6.980895231604516e+16
487.8518112499365,2.092591127562369e+16,6.463685669086031e+17,3543383357115927.0,1458523389884265.2,2.206570146395697e+16,1.5143208386791667e+17,3.6980837798052346e+17,7.713458557358189e+16
537.6369923749302,2.093933010480218e+16,7.102953675308445e+17,3545655559123065.0,1605325445423799.2,2.428665820783922e+16,1.6691775864429142e+17,4.077997469812751e+17,8.52008925880913e+16
592.4006916124232,2.0953789349980184e+16,7.805636380796951e+17,3548103922220197.5,1766286675626267.0,2.6721807005699324e+16,1.839416063003958e+17,4.495496094337482e+17,9.408243539202501e+16
652.6407607736655,2.0969441258036824e+16,8.577971874338916e+17,3550754226824570.5,1942717955376749.8,2.9390974826274212e+16,2.0265573743344992e+17,4.954262582311192e+17,1.0386130350280987e+17
718.9048368510321,2.0986445003923884e+16,9.426800343158317e+17,3553633426258301.5,2136039826895476.8,3.231564656466514e+16,2.2322708139308614e+17,5.45833297431977e+17,1.14627890669025e+17
791.7953205361354,2.100496894906417e+16,1.0359619849180874e+18,3556770029183521.5,2347789260797961.5,3.5519067077001616e+16,2.4583878756626778e+17,6.012128466031624e+17,1.2648175543260955e+17
871.9748525897489,2.102519280690355e+16,1.138464677611352e+18,3560194466310391.5,2579626291359552.0,3.9026341261827896e+16,2.706917495074815e+17,6.620489984061202e+17,1.39532574871348e+17
960.1723378487239,2.10473097769871e+16,1.2510881234554898e+18,3563939451770526.0,2833340372550882.0,4.2864529857571624e+16,2.980062605149474e+17,7.288715414694216e+17,1.539012020122419e+17
1057.1895716335964,2.10715286981497e+16,1.3748177706151342e+18,3568040347722773.0,3110856264559561.5,4.706273806638542e+16,3.280238093219518e+17,8.022599591777728e+17,1.6972083873859152e+17
1163.9085287969563,2.109807626382911e+16,1.510732119466962e+18,3572535539474352.0,3414239217927979.5,5.1652193468619176e+16,3.61009024471954e+17,8.828477128996256e+17,1.8713833760553533e+17
1281.299381676652,2.1127199337290788e+16,1.6600109130041984e+18,3577466827516413.5,3745699173790428.0,5.666630895417848e+16,3.9725177562093914e+17,9.713268151996518e+17,2.063156478908322e+17
1410.4293198443174,2.1159167401078184e+16,1.8239439238909184e+18,3582879842284621.0,4107593643845959.0,6.21407255649793e+16,4.370694393898494e+17,1.06845269454178e+18,2.2743142350710208e+17
1552.4722518287492,2.1194275172828884e+16,2.0039403549588234e+18,3588824487086933.5,4502428872815278.0,6.811332921897164e+16,4.8080933638446426e+17,1.1750493476572616e+18,2.5068281316539757e+17
1708.7194770116243,2.123284541837902e+16,2.2015388637987407e+18,3595355414434956.5,4932858819781004.0,7.462423427955053e+16,5.288513444973956e+17,1.2920147688677734e+18,2.7628745650142733e+17
1880.5914247127869,2.127523199256973e+16,2.41841821406913e+18,3602532540928208.0,5401681424176778.0,8.171572586239136e+16,5.816106914647008e+17,1.4203266369077143e+18,3.044857138766439e+17
2069.6505671840655,2.132182313813306e+16,2.656408545874433e+18,3610421605835122.0,5911831549244960.0,8.943215166463358e+16,6.395409266892388e+17,1.5610482288145037e+18,3.355431624128444e+17
2277.615623902472,2.1373045073284636e+16,2.9175032446713733e+18,3619094778556425.5,6466369923550184.0,9.781975300466299e+16,7.031370683381984e+17,1.7153345168114803e+18,3.6975339674163885e+17
2506.3771862927197,2.1429365898968944e+16,3.2038713722199066e+18,3628631320210212.0,7068467333976280.0,1.0692642374039363e+17,7.729389163880236e+17,1.8844383872698647e+18,4.074411802684733e+17
2758.0149049219917,2.1491299856853012e+16,3.517870603662099e+18,3639118304603451.0,7721383267576900.0,1.1680138488108216e+17,8.495345152657279e+17,2.0697169001848404e+18,4.489660019014099e+17
3034.816395414191,2.155941196883967e+16,3.8620605914252534e+18,3650651403799615.0,8428438162720233.0,1.2749476214358963e+17,9.335637405652192e+17,2.2726374824156864e+18,4.9472610476540224e+17
3339.2980349556105,2.1634323087680856e+16,4.2392166488553574e+18,3663335743289481.0,9192978422528562.0,1.3905705358521634e+17,1.0257219724241242e+18,2.49478391740211e+18,5.451630681904028e+17
3674.227838451172,2.1716715385651976e+16,4.652343613876948e+18,3677286831329345.0,1.0018333378608506e+16,1.515384749672415e+17,1.1267638028015222e+18,2.737861957273318e+18,6.00767043239273e+17
4042.6506222962894,2.1807338303461096e+16,5.104689715217106e+18,3692631566198812.5,1.090776348615111e+16,1.649881719024252e+17,1.2375067041815716e+18,3.003704339292022e+18,6.620827664852828e+17
4447.915684525919,2.190701497355346e+16,5.599760220633528e+18,3709509323773610.0,1.186439920087018e+16,1.7945329039078083e+17,1.3588345619945275e+18,3.2942749366164193e+18,7.297165081336173e+17
4893.707252978511,2.201664911931083e+16,6.141330598192141e+18,3728073125663702.0,1.2891170254182908e+16,1.9497790135605437e+17,1.491700940883521e+18,3.6116717130647844e+18,8.043441503886255e+17
5384.077978276362,2.2137232412412476e+16,6.733458868328397e+18,3748490884910074.5,1.3990725426670402e+16,2.1160178057914374e+17,1.6371319141799951e+18,3.9581280839401324e+18,8.867206409051306e+17
5923.485776103998,2.2269852242366716e+16,7.380496767073172e+18,3770946721446907.5,1.516534344136444e+16,2.293590532877995e+17,1.7962282347301212e+18,4.3360122132476544e+18,9.776911234024073e+17
6516.834353714399,2.241569981201792e+16,8.087099280991023e+18,3795642332727492.0,1.6416836274259012e+16,2.4827672285239715e+17,1.9701665618633738e+18,4.747823711801839e+18,1.0782041060544095e+18
7169.5177890858395,2.2576078417827776e+16,8.858232054564013e+18,3822798395596300.5,1.774644701889147e+16,2.6837311569569616e+17,2.160199383080815e+18,5.196187158037792e+18,1.1893270739173798e+18
7887.469567994424,2.2752411702594816e+16,9.69917611468204e+18,3852655963443396.0,1.9154745443368056e+16,2.896562896330215e+17,2.3676531821574917e+18,5.683841877084184e+18,1.3122649526979497e+18
8677.216524793868,2.2946251476890536e+16,1.0615529311209079e+19,3885477790264651.5,2.0641525430494104e+16,3.121224686499265e+17,2.593924253071721e+18,6.213627372988598e+18,1.4483819618011843e+18
9545.938177273256,2.3159285339539984e+16,1.1613203834059432e+19,3921549620649657.0,2.220571040071217e+16,3.357545966966897e+17,2.8404718953881554e+18,6.78846490871503e+18,1.5992258878986516e+18
10501.531995000581,2.339334221109801e+16,1.2698419177966264e+19,3961181126260729.0,2.384527236341805e+16,3.605210944381627e+17,3.108807566154928e+18,7.411333886248755e+18,1.7665568354236375e+18
11552.68519450064,2.365039725015381e+16,1.3877689934212205e+19,4004706737788712.5,2.5557174570129136e+16,3.863749718670362e+17,3.4004804577911864e+18,8.085244923972579e+18,1.9523773020233247e+18
12708.953713950705,2.393257457408771e+16,1.5157807875115481e+19,4052486105076867.5,2.733734642498174e+16,4.132534273919097e+17,3.7170584609140137e+18,8.813208377702228e+18,2.1589652020031926e+18
13980.849085345777,2.424214830068312e+16,1.6545817921397498e+19,4104904272928093.0,2.918070217913767e+16,4.4107811024275757e+17,4.060104759980896e+18,9.59819731704738e+18,2.388909979373711e+18
15379.933993880357,2.458154199027626e+16,1.8048987777848807e+19,4162371586139059.5,3.1081215107309416e+16,4.697562259170878e+17,4.4311501438232914e+18,1.0443101229560019e+19,2.645155049864683e+18
16918.927393268394,2.495332634105988e+16,1.967477130443231e+19,4225323298851618.5,3.3032058079292068e+16,4.991826528778211e+17,4.831660997224543e+18,1.1350667467295099e+19,2.9310494793156403e+18
18318.012301802974,2.529013482523873e+16,2.113053098103872e+19,4282352687943492.0,3.470289901067829e+16,5.243755831966854e+17,5.190087535801612e+18,1.2158521029230301e+19,3.1932714462862326e+18
19857.00570119101,2.5659506434670624e+16,2.2705779186277216e+19,4344895664972059.5,3.642489435891601e+16,5.50328887745723e+17,5.576730906829111e+18,1.3026086183450575e+19,3.4862039117932657e+18
21256.09060972559,2.5994321814973084e+16,2.4116874840693965e+19,4401587402799029.0,3.790499112419906e+16,5.726269454793441e+17,5.922619511793574e+18,1.3798447542885464e+19,3.7548799401936404e+18
22527.985981120662,2.629820380419791e+16,2.5382807416236847e+19,4453041356920962.5,3.918565500082591e+16,5.919128291498726e+17,6.232459497516114e+18,1.4487166500202652e+19,4.0013316892063027e+18
23927.070889655242,2.6631255092993492e+16,2.6755455422147084e+19,4509434238785828.0,4.051960415133692e+16,6.119923614112326e+17,6.566911680369444e+18,1.5228211548875626e+19,4.276679538007659e+18
25198.966261050315,2.6933106828618012e+16,2.7987306728705225e+19,4560544286661626.0,4.167686340196631e+16,6.294049652397381e+17,6.866394911212005e+18,1.5889450655744625e+19,4.5288856819916503e+18
26355.23478050038,2.7206920537453884e+16,2.9094237764370248e+19,4606906836461068.0,4.268647794280525e+16,6.44590182803526e+17,7.134921062318013e+18,1.6480272675543034e+19,4.759953538388989e+18
27627.130151895453,2.7506722253728436e+16,3.029659644953084e+19,4657669645632814.0,4.3747389952984104e+16,6.605399732864768e+17,7.425027265932196e+18,1.7117182835050605e+19,5.017934593409238e+18
28783.39867134552,2.7778352520945416e+16,3.137732395811631e+19,4703662379655119.0,4.467496244969133e+16,6.744796273954532e+17,7.685095246368083e+18,1.76867146760783e+19,5.253877430924167e+18
29834.55187084558,2.8024656532827628e+16,3.234982537116974e+19,4745366806280805.0,4.54898067193012e+16,6.867207953742798e+17,7.918536122325564e+18,1.8196522461336242e+19,5.469786162075249e+18
30790.145688572906,2.824807950587649e+16,3.322582327209387e+19,4783196963730224.0,4.620849711312449e+16,6.975139432385087e+17,8.128291618137184e+18,1.865341639454368e+19,5.667361542591789e+18
31841.298888072964,2.8492682220844096e+16,3.4179825785011974e+19,4824613244309527.0,4.697253908154708e+16,7.089837118864564e+17,8.355414757164667e+18,1.914750488090828e+19,5.887632600505879e+18
32796.89270580029,2.8714310332337388e+16,3.5039321271049257e+19,4862139420692187.0,4.7647281054728456e+16,7.191095593830409e+17,8.559470066351306e+18,1.959077757130007e+19,6.088740343207103e+18
33665.61435827968,2.8915248017122524e+16,3.5814360517782438e+19,4896162261240435.0,4.82452356197443e+16,7.280804036742469e+17,8.743014839750919e+18,1.9988759740411675e+19,6.272448888047495e+18
34621.20817600701,2.9135168080269932e+16,3.665939867823419e+19,4933399166380764.0,4.8884225783683016e+16,7.376634382599301e+17,8.941978067851812e+18,2.041973852688585e+19,6.477065852206223e+18
35489.92982848639,2.9334421478436496e+16,3.7421519867080425e+19,4967136766223620.0,4.945112308403054e+16,7.461628041418427e+17,9.120937533349177e+18,2.0807000279132144e+19,6.663666569128607e+18
36279.67678528583,2.951506827270716e+16,3.810939770564662e+19,4997723878494853.0,4.995555380940752e+16,7.537236771443482e+17,9.282078197793944e+18,2.11551614186868e+19,6.833966066060892e+18
37148.39843776522,2.971280057542897e+16,3.886016407754277e+19,5031203878643699.0,5.04969817774056e+16,7.618364601129704e+17,9.4569412648594e+18,2.153264412477848e+19,7.023501241560358e+18
37938.145394564664,2.9891974422243004e+16,3.953787999949269e+19,5061541548679262.0,5.097917088386622e+16,7.690597779213637e+17,9.614385062915238e+18,2.1872280472856584e+19,7.196221998944717e+18
38806.867047044056,3.008799753689844e+16,4.027766033535689e+19,5094732103006584.0,5.149722756388415e+16,7.768178955880658e+17,9.785232051647953e+18,2.2240670494654067e+19,7.38825993626307e+18
39596.6140038435,3.026558154174023e+16,4.094554548810971e+19,5124800541402110.0,5.1959061911926776e+16,7.837324038635561e+17,9.9390949865958e+18,2.2572234373869744e+19,7.563134279785582e+18
40465.33565632289,3.0459821701300656e+16,4.167469844985433e+19,5157689164742039.0,5.245578517555478e+16,7.911669416838557e+17,1.0106060732281344e+19,2.293186541707028e+19,7.757532062777289e+18
41255.08261312233,3.063578147823942e+16,4.2333073924419445e+19,5187482554378686.0,5.289907434595721e+16,7.978002520103876e+17,1.025645748624329e+19,2.3255597808248177e+19,7.934496039538958e+18
42123.80426560172,3.082822596866229e+16,4.305194636894661e+19,5220067099501566.0,5.337638150298318e+16,8.04940458128743e+17,1.0419657051930597e+19,2.3606716325758697e+19,8.131207858557434e+18
42913.55122240116,3.1002559001628052e+16,4.370112214869371e+19,5249585018985963.0,5.380279574589638e+16,8.113180382869169e+17,1.0566683631883856e+19,2.3922835477105435e+19,8.310230061650955e+18
43782.27287488055,3.1193208567665924e+16,4.441004858177727e+19,5281865616603989.0,5.426242588288394e+16,8.181904198108768e+17,1.0726216063584958e+19,2.4265673498595795e+19,8.509231099718515e+18
44572.019831679994,3.1365913209400852e+16,4.5050323500343575e+19,5311107790817710.0,5.467346266909647e+16,8.243350871661843e+17,1.0869957689968775e+19,2.457439332273159e+19,8.690286916807742e+18
