t(s),Total solute volume 1,Total retention volume 1,Total 1 volume 1,Total 2 volume 1,Total 3 volume 1,Total 4 volume 1,Total 5 volume 1,Total 6 volume 1
1.0,2608533823723230.5,2612274703608691.0,3740879885460.3955,0.0,0.0,0.0,0.0,0.0
2.1,3912339594792531.5,4084148278829251.5,5610658292939.468,26783370462.546455,131651196964.28366,2676915276400.509,55869991844664.336,107492684055285.02
3.3100000000000005,4886079548196739.0,5328638858673361.0,7007091719818.557,70227549017.8,345197022525.2417,7019783663503.576,146496178293469.34,281620832228263.06
4.641000000000001,5690608871217185.0,6498097194439314.0,8160861426894.403,128885284390.36696,633523741072.1096,12884703970141.467,268883243974548.0,516797104825098.0
6.105100000000002,6385528736125437.0,7652226173424501.0,9157441017115.531,202722925781.32428,996466037063.0221,20269167086707.777,422985367735007.8,813086272497395.6
7.7156100000000025,7000244935501494.0,8823903461815982.0,10039001120894.895,292257780535.9394,1436566782441.9753,29225905734770.152,609908577240371.8,1172756217655433.5
9.487171000000004,7551702911001958.0,1.0035459341935826e+16,10829843071019.514,398315714559.7812,1957885551822.955,39838725161098.91,831407049803879.0,1599324611631477.2
11.435888100000005,8050711469336455.0,1.130445725273877e+16,11545467697220.94,521940174208.3198,2565551433273.545,52213469571105.414,1089694863678517.8,2097204490847987.0
13.579476910000007,8504702538526927.0,1.2646234146241358e+16,12196533072320.066,664354671001.6066,3265578630086.932,66474340336177.67,1387369271883344.5,2671561529121530.5
15.937424601000009,8919104715681196.0,1.4075198775770002e+16,12790824306991.516,826948873301.2739,4064798100652.5503,82762585971777.14,1727383402096273.8,3328265500739836.0
18.53116706110001,9298092261693200.0,1.5605581519865684e+16,13334327677564.867,1011276972768.6605,4970849534577.081,101236434796067.3,2113044855731910.0,4073891513459626.5
21.384283767210015,9645021068105922.0,1.7251917512368012e+16,13831855842908.162,1219063334631.692,5992209132719.428,122071775205621.45,2548029891450894.0,4915751649295303.0
24.522712143931017,9962694515023138.0,1.9029391627582308e+16,14287429109316.416,1452212972612.2393,7138241103738.363,145463342115306.34,3036408164363588.0,5861947722894616.0
27.97498335832412,1.0253530899592778e+16,2.095410957504987e+16,14704515538480.652,1712825519332.8833,8419266344029.308,171626281819774.66,3582675362978488.5,6921440423256999.0
31.772481694156536,1.0519671085253458e+16,2.3043329776570996e+16,15086185326492.215,2003211913952.1924,9846644476018.967,200798023559446.3,4191792253934556.5,8104132372107072.0
35.949729863572195,1.0763048520358192e+16,2.531567606846897e+16,15435211217046.719,2325913319943.298,11432866851039.053,233240416335358.03,4869229274616138.0,9420963865771296.0
40.544702849929415,1.098543499320538e+16,2.7791343613952396e+16,15754134118405.88,2683721952857.7285,13191658943580.443,269242107588938.66,5621016188913465.0,1.0884020809229808e+16
45.59917313492236,1.1188470545364028e+16,3.0492306222381588e+16,16045306001883.576,3079703601094.055,15138091070965.395,309121152330184.94,6453796568928964.0,1.250665485508442e+16
51.1590904484146,1.1373683028943686e+16,3.3442530908829656e+16,16310917948785.455,3517221689254.3135,17288696699757.111,353227849921334.06,7374887043359478.0,1.4303616150267358e+16
57.27499949325607,1.154250096126761e+16,3.666820416910267e+16,16553018585201.596,3999962775268.61,19661597804808.344,401947812221940.75,8392341387355799.0,1.6291199429092028e+16
64.00249944258168,1.1696262135797104e+16,4.0197973663747064e+16,16773526430866.393,4531963393600.617,22276636850870.973,455705271686250.94,9515019629673420.0,1.8487404499914884e+16
71.40274938683986,1.1836219641868406e+16,4.406320856606927e+16,16974238532014.041,5117638158923.568,25155514977061.445,514966641483102.0,1.0752662425184092e+16,2.091211246586576e+16
79.54302432552385,1.1963546389319022e+16,4.829828160255279e+16,17156836950104.924,5761809027887.783,28321935882256.22,580244341877313.0,1.211597098616616e+16,2.3587279303330068e+16
88.49732675807624,1.207933884645533e+16,5.294087572369231e+16,17322894122409.238,6469735580781.259,31801754733654.844,652100908029505.6,1.3616692885295076e+16,2.653714869947554e+16
98.34705943388387,1.2184620430724018e+16,5.80323183449085e+16,17473877724535.7,7247146129594.7295,35623131149236.12,731153394082651.2,1.526771403767768e+16,2.9788486327420664e+16
109.18176537727226,1.2280344807405102e+16,6.361794616446321e+16,17611155401054.293,8100269383571.526,39816684934359.305,818078086930930.5,1.7083157138949484e+16,3.3370838021458644e+16
121.09994191499949,1.236739922898669e+16,6.974750368213915e+16,17735999554461.074,9035866306709.504,44415652778199.72,913615540395779.6,1.907848678100558e+16,3.731681461311173e+16
134.20993610649944,1.2446607969208266e+16,7.647557869866411e+16,17849592269907.34,10061261682386.197,49456043529687.27,1018575936599466.8,2.127062138494379e+16,4.166240651043053e+16
148.6309297171494,1.251873585802993e+16,8.386207826459558e+16,17953030384665.94,11184374756304.012,54976788965318.86,1133844775999952.8,2.3678051979561596e+16,4.644733145689792e+16
164.49402268886433,1.2584491897228698e+16,9.197274876350883e+16,18047330673226.707,12413748157842.459,61019886120559.81,1260388890632963.5,2.632096770910961e+16,5.171541930158606e+16
181.94342495775078,1.2644532923735102e+16,1.008797440536486e+17,18133435100855.156,13758574098875.488,67630526268846.33,1399262766325077.2,2.922138777026285e+16,5.751503805785706e+16
201.13776745352587,1.2699467283992986e+16,1.1066224585098613e+17,18212216092961.62,15228716615225.648,74857204482987.75,1551615148644411.5,3.240329924813028e+16,6.389956603302745e+16
222.25154419887846,1.2749858483926356e+16,1.2140714081121504e+17,18284481769489.11,16834728346392.36,82751802389286.34,1718695893715448.5,3.5892800035638464e+16,7.09279153854296e+16
245.47669861876633,1.2796228783069366e+16,1.3320975905508483e+17,18350981099226.188,18587860041708.066,91369635213628.61,1901863008233957.0,3.971824566923788e+16,7.866511311818906e+16
271.024368480643,1.2839062706475812e+16,1.461746791769431e+17,18412408936209.547,20500060634355.48,100769452514742.44,2102589802490425.0,4.391039848433055e+16,8.71829462615607e+16
299.1268053287073,1.287881045320588e+16,1.6041660507671587e+17,18469410907808.562,22583965339043.61,111013380104283.56,2322472055281057.5,4.8502576972240296e+16,9.656067883963757e+16
330.03948586157804,1.2915891184932238e+16,1.7606132025704835e+17,18522588130890.71,24852868807352.32,122166788579898.83,2563235059512560.0,5.3530802591488696e+16,1.0688584917559698e+17
364.0434344477359,1.2950696182234362e+16,1.9324672552617645e+17,18572501738239.953,27320679923036.89,134298071676383.3,2826740381282428.0,5.9033940532701416e+16,1.1825515717661994e+17
401.44777789250946,1.29835918593329e+16,2.121239663398503e+17,18619677201965.08,30001854348880.25,147478315325122.53,3114992122374632.5,6.5053830040659736e+16,1.307754524706071e+17
442.5925556817604,1.3014922630331432e+16,2.3285865629924774e+17,18664608443956.445,32911300464225.855,161780835987745.34,3430142425557136.5,7.163539884014807e+16,1.4456483565831555e+17
487.8518112499365,1.3045013621492104e+16,2.5563220359433517e+17,18707761725541.152,36064253883471.72,177280564620667.6,3774495902911700.5,7.88267549758391e+16,1.59753886513862e+17
537.6369923749302,1.3074173224707882e+16,2.806432474433598e+17,18749579309398.812,39476115356144.28,194053250707647.7,4150512598843551.0,8.667924794334478e+16,1.7648703473109053e+17
592.4006916124232,1.3102695487177912e+16,3.0810921183146797e+17,18790482886578.844,43162246566875.11,212174459404085.44,4560809020725054.0,9.524748934463848e+16,1.9492409079006954e+17
652.6407607736655,1.3130862331369246e+16,3.38267984101411e+17,18830876760131.574,47137718241770.39,231718334279385.4,5008156680908007.0,1.0458932143779541e+17,2.1524195672205706e+17
718.9048368510321,1.3158945597663754e+16,3.7137972620947386e+17,18871150774453.78,51417005106651.29,252756098816865.66,5495477494094082.0,1.1476571986868717e+17,2.3763653899433075e+17
791.7953205361354,1.3187208899651696e+16,4.077288267508409e+17,18911682975952.6,56013622731622.016,275354272221609.66,6025835264424707.0,1.2584061458459838e+17,2.6232488842423686e+17
871.9748525897489,1.321590927883294e+16,4.476260022128701e+17,18952841986040.934,60939702254083.58,299572579778458.3,6602422378696838.0,1.3788061046967723e+17,2.895475949616436e+17
960.1723378487239,1.324529864151719e+16,4.9141055637972614e+17,18994989061786.203,66205500535427.164,325461545667201.06,7228540698670791.0,1.5095458666946592e+17,3.195714683348077e+17
1057.1895716335964,1.3275624955980552e+16,5.394528074548864e+17,19038479812744.21,71818845625783.5,353059767520279.56,7907575521086029.0,1.6513315098267427e+17,3.526925389021854e+17
1163.9085287969563,1.3307133182449512e+16,5.92156693382343e+17,19083665534643.64,77784520642121.27,382390887866135.9,8642961355608045.0,1.8048792323705395e+17,3.8923941653318925e+17
1281.299381676652,1.334006590230905e+16,6.499625671578694e+17,19130894111728.266,84103593454024.4,413460298659161.94,9438138168324640.0,1.9709061943868682e+17,4.2957704886232454e+17
1410.4293198443174,1.3374663606161998e+16,7.133501957925761e+17,19180510429862.434,90772705033376.78,446251641921298.7,1.0296496665128924e+16,2.150119069740267e+17,4.7411092368987475e+17
1552.4722518287492,1.341116459320448e+16,7.828419792325573e+17,19232856232225.85,97783336010756.95,480723202368155.8,1.1221311163452762e+16,2.343200006299328e+17,5.232917634513562e+17
1708.7194770116243,1.3449804427115114e+16,8.590064092137466e+17,19288269339009.035,105121078839667.73,516804326508603.9,1.2215658645790544e+16,2.5507897016932262e+17,5.776207622968292e+17
1880.5914247127869,1.3490814886747766e+16,9.424617930611506e+17,19347082142609.965,112764951790483.92,554392046067830.5,1.3282322733795532e+16,2.773467332757877e+17,6.37655418084818e+17
2069.6505671840655,1.3534422344030766e+16,1.0338802742060914e+18,19409619281391.688,120686800353778.48,593348129606000.2,1.4423681603470164e+16,3.011727136121557e+17,7.040160120971922e+17
2277.615623902472,1.3580845497533206e+16,1.13399219012724e+18,19476194389406.668,128850840824403.12,633496831440275.6,1.5641579322489588e+16,3.2659515340981984e+17,7.773927880307429e+17
2506.3771862927197,1.3630292389422042e+16,1.2435908199940938e+18,19547105818437.25,137213408828998.6,674623646351242.1,1.6937180777658748e+16,3.536380844111541e+17,8.58553878254861e+17
2758.0149049219917,1.368295663763729e+16,1.3635375889878482e+18,19622631234586.227,145722980955956.03,716475405218685.1,1.8310811324286776e+16,3.823079811745721e+17,9.483540188339401e+17
3034.816395414191,1.3739012826132404e+16,1.4947678145405896e+18,19703021007455.113,154320538711523.66,758762052153848.4,1.9761783578234284e+16,4.125901477246348e+17,1.0477440847997161e+18
3339.2980349556105,1.3798611016468642e+16,1.6382971019063475e+18,19788490339261.457,162940338773319.3,801160418115413.8,2.1288215424306624e+16,4.4444492308782624e+17,1.1577814631305175e+18
3674.227838451172,1.3861870376798714e+16,1.7952285226830894e+18,19879210128212.36,171511139907693.9,843320239399193.4,2.288684534928315e+16,4.778038337558941e+17,1.279641262611676e+18
4042.6506222962894,1.3928871972417074e+16,1.9667607399284183e+18,19975296629485.64,179957913205200.6,884872553127080.1,2.4552853605235424e+16,5.1256587115005485e+17,1.414628337437752e+18
4447.915684525919,1.3999650828535408e+16,2.1541972766335939e+18,20076800072514.742,188204027463563.62,925440430948368.0,2.6279700392942012e+16,5.48594128114059e+17,1.5641900760395694e+18
4893.707252978511,1.40741874630117e+16,2.358957159139531e+18,20183692518138.066,196173855940206.7,964651788173058.4,2.805899506919472e+16,5.857130870419096e+17,1.72992988022878e+18
5384.077978276362,1.4152399195101362e+16,2.5825872013377004e+18,20295855394543.36,203795696599020.16,1002153739681547.1,2.9880413062429504e+16,6.237069079288285e+17,1.9136212358596644e+18
5923.485776103998,1.4234131663871044e+16,2.8267762259580984e+18,20413067333886.902,211004840171987.34,1037627689636094.5,3.1731679337483996e+16,6.6231910924329e+17,2.1172222601163113e+18
6516.834353714399,1.4319151130507484e+16,3.0933715416645166e+18,20534993133091.746,217746566342133.03,1070804076042361.9,3.359863835437297e+16,7.012540570244804e+17,2.342890609519642e+18
7169.5177890858395,1.4407138280449856e+16,3.3843980039783777e+18,20661174865530.31,223978808004818.25,1101475492082692.1,3.5465429867186824e+16,7.401806644481537e+17,2.5929986559076316e+18
7887.469567994424,1.4497684365121418e+16,3.7020799787721544e+18,20791026347909.914,229674208003130.5,1129506828570376.5,3.7314786887724744e+16,7.787386402954392e+17,2.8701488951609503e+18
8677.216524793868,1.4590290602566418e+16,4.0488664941690383e+18,20923832280728.88,234821312290341.44,1154841176742529.0,3.9128466012046984e+16,8.165474961520134e+17,3.1771896550811085e+18
9545.938177273256,1.4684371758610258e+16,4.427459806737346e+18,21058753383990.723,239424704860541.66,1177500531109108.2,4.088781060194961e+16,8.532183189817801e+17,3.5172313214056504e+18
10501.531995000581,1.4779264719525908e+16,4.840847520631565e+18,21194838691199.203,243503992987818.7,1197580838381073.2,4.257443398765295e+16,8.883680373033541e+17,3.8936635049509693e+18
11552.68519450064,1.4874242611817768e+16,5.292338288420399e+18,21331045798434.105,247091687061793.66,1215241605377235.2,4.41709935636128e+16,9.216355693265706e+17,4.310173818580163e+18
12708.953713950705,1.496853460673911e+16,5.785601000651844e+18,21466269265859.906,250230168343484.53,1230691011831300.5,4.566200894756527e+16,9.526988728366885e+17,4.770769196811415e+18
13980.849085345777,1.506135097449195e+16,6.324707255512491e+18,21599376547767.11,252968073100193.12,1244168139633331.2,4.703466082129564e+16,9.812915728197353e+17,5.279800935307688e+18
15379.933993880357,1.5151912270445424e+16,6.914176813982257e+18,21729249848309.08,255356513010991.5,1255924381628680.8,4.827949506122405e+16,1.0072175945293452e+18,5.841994801976752e+18
16918.927393268394,1.5239480830080614e+16,7.559025716411788e+18,21854831288169.074,257445574902105.5,1266206209541139.8,4.9390953017502776e+16,1.0303621542943963e+18,6.462487621654085e+18
18611.820132595236,1.5323392144661414e+16,8.264816788074379e+18,21975167900177.293,259281486723413.72,1275241206992960.0,5.036765650250319e+16,1.0506976239962299e+18,7.146871617569371e+18
20474.00214585476,1.5403083327328428e+16,9.037712409727311e+18,22089452452327.855,260904709318336.2,1283228649190472.0,5.1212396782964936e+16,1.0682832201592202e+18,7.901247486646837e+18
22522.40236044024,1.547811588542173e+16,9.884529674679521e+18,22197056105401.29,262349042353337.94,1290335069782380.2,5.193180959145437e+16,1.0832581525743045e+18,8.732286715460106e+18
24775.642596484264,1.554819045993852e+16,1.081279837613114e+19,22297549550717.863,263641657804917.62,1296694394400173.2,5.253575868246032e+16,1.0958287121523162e+18,9.647303081234668e+18
27254.206856132692,1.5613152058165278e+16,1.1830822627049462e+19,22390710514222.863,264803836540462.38,1302411540731161.2,5.303649172989354e+16,1.1062506364541958e+18,1.0654332740719423e+19
29980.627541745966,1.5672985468425518e+16,1.2947747254530404e+19,22476517180818.223,265852111661512.34,1307568029244930.2,5.344766590040821e+16,1.1148087870529737e+18,1.1762221919450477e+19
32979.69029592056,1.5727801798209076e+16,1.4173630373695705e+19,22555128888800.26,266799524562637.1,1312228157699367.8,5.378335844831378e+16,1.1217965436829284e+18,1.2980721086955088e+19
36278.65932551262,1.577781817227991e+16,1.551952368713155e+19,22626857015073.496,267656762560171.84,1316444600303882.2,5.405717543926923e+16,1.1274972685466621e+18,1.4320584696753457e+19
39907.525258063884,1.5823333347216784e+16,1.6997562054981153e+19,22692130004147.957,268433042193266.2,1320262760182204.0,5.428154928005515e+16,1.1321697225560388e+18,1.5793676061865409e+19
43899.277783870275,1.5864702214431476e+16,1.8621063751584113e+19,22751456803109.445,269136698350151.5,1323723676363155.5,5.446727827441071e+16,1.136038532304932e+18,1.7413077626958817e+19
48290.20556225731,1.590231187102006e+16,2.0404642611452465e+19,22805392545004.555,269775512168280.4,1326865645316149.0,5.462331786850256e+16,1.1392898988133435e+18,1.919320763634961e+19
53120.22611848305,1.5936561253024464e+16,2.23643330336469e+19,22854509341049.812,270356849490537.34,1329724908985067.2,5.475679365694175e+16,1.1420719161324986e+18,2.1149944826336604e+19
58433.24873033136,1.5967845443496992e+16,2.4517728623207686e+19,22899373776940.414,270887688827278.03,1332335797337600.0,5.487317879484973e+16,1.1444982999742154e+18,2.3300763176135213e+19
64277.57360336451,1.5996544899141332e+16,2.688413514790996e+19,22940531462851.113,271374603723941.34,1334730644864099.0,5.4976567290812184e+16,1.1466540977082999e+18,2.5664878892231574e+19
70706.33096370097,1.6023019152126494e+16,2.9484738496487985e+19,22978498001249.816,271823741611015.22,1336939688430975.2,5.506997899430172e+16,1.1486020447563013e+18,2.826341171165717e+19
77777.96406007107,1.6047604126007642e+16,3.2342788429330612e+19,23013755137674.684,272240819395932.2,1338991046597271.0,5.515564733140623e+16,1.1503885518819274e+18,3.1119562380370244e+19
85556.76046607818,1.607061205946552e+16,3.5483799082113786e+19,23046750651366.29,272631140419213.28,1340910797676147.0,5.523526062189626e+16,1.1520487204046762e+18,3.4258807900338995e+19
94113.436512686,1.6092333098186048e+16,3.893576737699829e+19,23077900638166.3,272999628633232.38,1342723171306386.2,5.531014630184524e+16,1.1536101668595758e+18,3.770911593003815e+19
103525.78016395462,1.6113037804601392e+16,4.272941068000417e+19,23107593109717.285,273350875186073.47,1344450742816248.2,5.538140087331373e+16,1.1550957184652193e+18,4.150117961364983e+19
113879.3581803501,1.6132980062659112e+16,4.689842519485513e+19,23136192159167.83,273689187110818.88,1346114695909614.2,5.544997576983741e+16,1.1565251928489728e+18,4.566867410609847e+19
125268.29399838512,1.6152400061011082e+16,5.1479766694162964e+19,23164042239341.453,274018639105692.16,1347735071574961.0,5.551673145151562e+16,1.1579165186900756e+18,5.024853612620735e+19
137796.12339822366,1.617152719382997e+16,5.651395525931933e+19,23191472322775.08,274343122745112.72,1349331010122259.8,5.558247080217217e+16,1.1592864274859438e+18,5.52812679682322e+19
151576.73573804603,1.6190582819737804e+16,6.204540573560375e+19,23218799858277.56,274666393283705.22,1350920981381817.8,5.56479601942427e+16,1.1606508900608873e+18,6.081126749635437e+19
166735.40931185064,1.6209782877622834e+16,6.812278561035391e+19,23246334522253.758,274992114032489.03,1352523002962583.2,5.571394337069932e+16,1.1620254046004436e+18,6.688718571805369e+19
183409.95024303574,1.6229340373048714e+16,7.479940200778052e+19,23274381784444.92,275323898539729.53,1354154847713337.5,5.578115374480717e+16,1.1634252517805164e+18,7.356231350875416e+19
201751.94526733932,1.6249467792332256e+16,8.21336193925158e+19,23303246369940.363,275665351544717.2,1355834245148735.0,5.58503215530147e+16,1.1648656439783951e+18,8.08949991563489e+19
221928.13979407327,1.6270379447049288e+16,9.01893095169499e+19,23333235621415.78,276020108751296.66,1357579077070587.8,5.592218329112243e+16,1.1663619213320527e+18,8.894909810045806e+19
244121.9537734806,1.6292293802439334e+16,9.903633493845003e+19,23364662838281.38,276391876328240.47,1359407571845645.2,5.5997489715407496e+16,1.1679297182754514e+18,9.77944562725458e+19
268535.1491508287,1.6315435812396946e+16,1.0875106721095469e+20,23397850625275.91,276784470521371.03,1361338499232937.5,5.607701386631942e+16,1.1695851305312937e+18,1.0750742810992388e+20
295389.6640659116,1.634003928948197e+16,1.1941694052318226e+20,23433134291281.01,277201857859751.38,1363391368132936.8,5.616155921238585e+16,1.1713448845810506e+18,1.18171430013739e+20
324929.6304725028,1.6366349337067908e+16,1.3112504111495912e+20,23470865337246.703,277648196416025.8,1365586629521250.0,5.625196800746823e+16,1.173226511540605e+18,1.2987752958038258e+20
