t(s),Total solute volume 1,Total retention volume 1,Total 1 volume 1,Total 2 volume 1,Total 3 volume 1,Total 4 volume 1,Total 5 volume 1,Total 6 volume 1
1.0,4781772169833003.0,4987227353010409.0,205455183177404.2,0.0,0.0,0.0,0.0,0.0
2.1,7294215664209827.0,7680382572285286.0,313404215632684.25,24469038119.31571,290885123789.2321,10024496314764.607,50719326221179.75,11703515744916.53
3.3100000000000005,9272980257142516.0,9862686470068180.0,398423300653372.0,65318901135.72804,776346542419.8148,26393709560996.35,132925806646387.89,31121730621339.668
4.641000000000001,1.1002307594281448e+16,1.182780941141701e+16,472725148172172.6,122143932532.19348,1451559481356.6929,48912888653494.88,244442357937119.8,57847718958861.11
6.105100000000002,1.25869021238901e+16,1.368628041881077e+16,540808447790495.4,195905802767.43356,2327945053310.289,77936862888965.72,386020791031043.4,92088342354055.8
7.7156100000000025,1.4078057296015856e+16,1.5494634997652736e+16,604877053594993.0,288207536740.121,3424539293945.2983,114063864220187.95,559633293578461.44,134290743412562.16
9.487171000000004,1.5504846778265724e+16,1.7287433259235722e+16,666180134440625.2,401103222673.2417,4765734318830.496,158063092905772.62,768105406533229.9,185071009548858.53
11.435888100000005,1.68851758948105e+16,1.9088618543127024e+16,725487004897355.0,537037247797.3524,6380557085010.94,210851711780069.22,1014988750313439.4,245197586992853.28
13.579476910000007,1.8230591043432716e+16,2.09164720670733e+16,783293764431152.4,698829098716.6998,8302489049931.003,273489076346034.3,1304507534237126.2,315589330477532.9
15.937424601000009,1.9548674010627584e+16,2.2786099698706556e+16,839926170524515.6,889678102050.0448,10569522640500.049,347178761995147.1,1641542403159403.2,397319151657333.3
18.53116706110001,2.0844351808480376e+16,2.471082055731031e+16,895595916625163.9,1113178134830.2717,13224336201467.064,433274706717460.94,2031639697200676.8,491620913950324.4
21.384283767210015,2.2120665476121856e+16,2.670301491393585e+16,950433664202708.5,1373337674830.349,16314532468697.086,533289744489802.4,2481039343645791.5,599898815332128.9
24.522712143931017,2.337924783606495e+16,2.8774685904331624e+16,1004509569873613.8,1674602715444.2832,19892911187023.117,648905619106737.6,2996716468895391.5,723738896488424.2
27.97498335832412,2.4620636051668252e+16,3.093786210083314e+16,1057846714647023.9,2021881045920.9863,24017758082352.836,781983949863335.6,3586433285040961.0,864922460485258.5
31.772481694156536,2.5844486981432524e+16,3.320490914667995e+16,1110430356765971.8,2420566887293.5356,28753138208379.523,934577812021236.4,4258798998695969.0,1025441292668586.9
35.949729863572195,2.704973430058059e+16,3.5588789413112276e+16,1162214682532485.0,2876565160739.475,34169185083723.777,1108943700822269.4,5023336327493969.0,1207514651438431.5
40.544702849929415,2.8234710906938376e+16,3.8103293202818184e+16,1213128065539195.2,3396314880808.3076,40342379588199.19,1307553718912866.8,5890553754398422.0,1413608062560265.0
45.59917313492236,2.9397251453680348e+16,4.076325645042364e+16,1263077472027355.5,3986811380008.168,47355815117057.39,1533107890126737.5,6872023013245798.0,1646453994846305.8
51.1590904484146,3.0534784714040304e+16,4.3584774893874824e+16,1311952429357064.2,4655627323659.749,55299448474706.07,1788546573089268.2,7980461572103933.0,1909074529485968.0
57.27499949325607,3.1644422245766052e+16,4.658542168013422e+16,1359628835482515.8,5410932789264.172,64270339716699.0,2077063036086364.0,9229820124108436.0,2204806166184870.8
64.00249944258168,3.2723047618165588e+16,4.9784473470980536e+16,1405972792589702.8,6261515076370.085,74372888781920.17,2402116366959217.0,1.0635375346171002e+16,2537326943236743.5
71.40274938683986,3.3767408812865896e+16,5.320314886402763e+16,1450844577087112.2,7216799383396.858,85719082325306.08,2767445032617718.5,1.2213828468979316e+16,2910686090768810.5
79.54302432552385,3.4774215040081784e+16,5.686486207822309e+16,1494102799307394.2,8286872026053.131,98428770536826.14,3177081573074186.0,1.3983410533633208e+16,3329336489563563.5
88.49732675807624,3.5740237975389064e+16,6.0795494222720264e+16,1535608753138627.0,9482508450459.783,112630000592352.78,3635369111408325.5,1.596399560103161e+16,3798170272709909.5
98.34705943388387,3.666241624618033e+16,6.502368399007198e+16,1575230905285163.2,10815208866358.766,128459440178055.12,4146980575011601.0,1.817722363198016e+16,4322557982570290.0
109.18176537727226,3.753796086837248e+16,6.958113924803765e+16,1612849425367164.8,12297244825356.291,146062930475763.84,4716941739457735.0,2.064663526115424e+16,4908391778384850.0
121.09994191499949,3.836445828606791e+16,7.45029707363153e+16,1648360613045756.0,13941720411824.643,165596212095231.38,5350659401966833.0,2.3397821226250096e+16,5562133276477568.0
134.20993610649944,3.913996677315676e+16,7.982804891291934e+16,1681681039961450.0,15762651805137.732,187225868566201.03,6053956137908224.0,2.6458589750418868e+16,6290866691102735.0
148.6309297171494,3.9863101320389896e+16,8.559938496167971e+16,1712751196969288.0,17775068719119.527,211130529061567.38,6833113158589913.0,2.985915566297963e+16,7102358024970384.0
164.49402268886433,4.0533101874514296e+16,9.186453709704624e+16,1741538426113155.5,19995140557023.062,237502364165279.1,7694922740214809.0,3.363235542110529e+16,8005121130376444.0
181.94342495775078,4.114988003272218e+16,9.867604361492742e+16,1768038926947281.0,22440329010992.387,266548895394998.9,8646751508863936.0,3.781389240015378e+16,9008491521834436.0
201.13776745352587,4.1714040107829224e+16,1.0609188465951848e+17,1792278661705357.8,25129567322383.496,298495121286949.94,9696615537539478.0,4.244261679539472e+16,1.0122708868440298e+16
222.25154419887846,4.222687188539502e+16,1.1417597540802827e+17,1814313044215957.2,28083464621992.8,333585941543040.56,1.08532677556329e+16,4.7560844185627096e+16,1.1359009130992032e+16
245.47669861876633,4.269031432129168e+16,1.229986942923108e+17,1834225380267736.2,31324531884347.496,372088838359589.1,1.2126297634367384e+16,5.3214716245776984e+16,1.272972734036274e+16
271.024368480643,4.310689170149987e+16,1.3263745092015603e+17,1852124124798968.2,34877424311240.12,414296753606849.4,1.3526242566718468e+16,5.94546063013763e+16,1.4248412047844426e+16
299.1268053287073,4.3479626135584504e+16,1.4317729943943997e+17,1868139122240709.2,38769193671554.625,460531085156360.25,1.5064709897620916e+16,6.6335571480296696e+16,1.5929952524869182e+16
330.03948586157804,4.381193235394332e+16,1.547116040934074e+17,1882417086513125.2,43029543483110.0,511144717932442.1,1.6754508270834462e+16,7.391785226270824e+16,1.7790719857992648e+16
364.0434344477359,4.4107502301306664e+16,1.6734276452844944e+17,1895116642586760.5,47691080033708.664,566525006469266.6,1.8609786912129628e+16,8.226741940502864e+16,1.984872318089487e+16
401.44777789250946,4.437018771322423e+16,1.8118300893781872e+17,1906403281352857.5,52789553056632.2,627096635356514.4,2.0646181692490904e+16,9.145656765753094e+16,2.212378240480645e+16
442.5925556817604,4.460388861228012e+16,1.9635526329568045e+17,1916444568808672.0,58364081196096.19,693324299546196.2,2.2880967285139052e+16,1.0156455551929104e+17,2.4637718929419344e+16
487.8518112499365,4.481245451940685e+16,2.1299410474808832e+17,1925405901527640.2,64457358895505.95,765715164222552.0,2.5333215371734696e+16,1.1267829055515502e+17,2.7414565877145696e+16
537.6369923749302,4.499960335595464e+16,2.3124680672662602e+17,1933447022201136.0,71115842642670.02,844821079381321.5,2.802395955902038e+16,1.248930606046645e+17,3.048079926276135e+16
592.4006916124232,4.516886083711829e+16,2.5127448262256752e+17,1940719415587972.0,78389915278056.94,931240533461950.8,3.097636832524262e+16,1.383133126574461e+17,3.386559093843234e+16
652.6407607736655,4.532352098339376e+16,2.7325333400676902e+17,1947364611803925.8,86334027095588.88,1025620330714588.5,3.42159278375208e+16,1.5305348348196774e+17,3.760108273427287e+16
718.9048368510321,4.546662651436796e+16,2.973760084943727e+17,1953513343865417.8,95006811674511.6,1128656967668665.8,3.7770636822226024e+16,1.6923888961252608e+17,4.172267842204441e+16
791.7953205361354,4.560096654278796e+16,3.2385307149026797e+17,1959285448553331.2,104471172855012.39,1241097666032671.0,4.167121583237703e+16,1.8700668924603917e+17,4.62693455816225e+16
871.9748525897489,4.5729088228230264e+16,3.529145952197725e+17,1964790367066687.2,114794337182572.45,1363740994639033.0,4.595133326869241e+16,2.0650693444077222e+17,5.1283913583189384e+16
960.1723378487239,4.585331882588065e+16,3.848118676078311e+17,1970128092318263.8,126047863681890.7,1497436983843543.5,5.064785039070801e+16,2.2790373627956352e+17,5.681334917183621e+16
1057.1895716335964,4.597579473514496e+16,4.1981922263609043e+17,1975390416992738.2,138307600091058.9,1643086603387639.8,5.580108725072189e+16,2.5137656258282934e+17,6.290899344692229e+16
1163.9085287969563,4.60984945378652e+16,4.5823599266882586e+17,1980662353030494.2,151653571669732.12,1801640438859325.2,6.145511083944125e+16,2.7712166800627744e+17,6.962676292168326e+16
1281.299381676652,4.622327346994082e+16,5.003885817699116e+17,1986023612706098.2,166169785282611.16,1974096361220290.5,6.765804552585659e+16,3.0535361121272864e+17,7.702736180217683e+16
1410.4293198443174,4.635189724866279e+16,5.466326571057267e+17,1991550062028976.5,181943927699980.53,2161495938978818.5,7.446240404740531e+16,3.3630674801397414e+17,8.517661786697726e+16
1552.4722518287492,4.648607377944788e+16,5.973554530241594e+17,1997315083032264.5,199066933602754.4,2364919301323646.5,8.192543539968042e+16,3.702365399236031e+17,9.414610260346984e+16
1708.7194770116243,4.662748213440506e+16,6.529781792145353e+17,2003390818843481.5,217632397065908.1,2585478140158408.0,9.010948530667784e+16,4.074205514275756e+17,1.0401415898980821e+17
1880.5914247127869,4.677779923504184e+16,7.139585204046898e+17,2009849320112990.2,237735801547121.44,2824306554217386.5,9.908236662768112e+16,4.481591601100173e+17,1.1486730275607245e+17
2069.6505671840655,4.6938725381886376e+16,7.807932102688748e+17,2016763641903579.0,259473546817500.38,3082549479532362.0,1.0891774006631411e+17,4.9277618427047136e+17,1.268017738819466e+17
2277.615623902472,4.711200969357242e+16,8.540206565250116e+17,2024208936696928.5,282941754234729.75,3361348486067624.0,1.196955068403433e+17,5.4161967580784915e+17,1.3992496500624898e+17
2506.3771862927197,4.729947588963166e+16,9.342235874825332e+17,2032263562174532.2,308234833380999.75,3661824739473709.5,1.3150221288829221e+17,5.950629789395974e+17,1.5435659662998307e+17
2758.0149049219917,4.75030484213291e+16,1.0220316824130056e+18,2041010203956944.8,335443796205184.4,3985058963623672.5,1.4443146068859088e+17,6.535059544192581e+17,1.702297059200412e+17
3034.816395414191,4.772477910287128e+16,1.1181241388884803e+18,2050537019844373.0,364654313190962.44,4332068339105599.0,1.5858432289481098e+17,7.173761668923511e+17,1.8769161032630288e+17
3339.2980349556105,4.7966874886348824e+16,1.223232119516338e+18,2060938833200094.8,395944521317405.7,4703780454259855.0,1.7406975279458614e+17,7.871298452598505e+17,2.0690498276677498e+17
3674.227838451172,4.823172791450133e+16,1.3381410081852434e+18,2072318424204694.2,429382615733955.8,5101004689122882.0,1.9100498957754394e+17,8.63252477953384e+17,2.2804910701075443e+17
4042.6506222962894,4.852194940763193e+16,1.463692391936409e+18,2084787985851580.8,465024286833727.94,5524401766983678.0,2.0951596157847562e+17,9.4625893738446e+17,2.5132132952617482e+17
4447.915684525919,4.884040947175278e+16,1.6007856687444106e+18,2098470834360276.0,502910104213111.25,5974452682208950.0,2.2973769973142026e+17,1.0366930249769382e+18,2.7693870094351728e+17
4893.707252978511,4.919028584288727e+16,1.7503791634733898e+18,2113503503550779.5,543063003309482.94,6451428859782008.0,2.518147901716232e+17,1.1351262950915096e+18,3.051397970007279e+17
5384.077978276362,4.957512629389572e+16,1.9134906131819786e+18,2130038426259209.5,585486106646795.6,6955366309207465.0,2.7590192599908784e+17,1.2421559555416502e+18,3.3618671450523085e+17
5923.485776103998,4.999893253970217e+16,2.091196856740825e+18,2148247539481941.0,630161222314466.1,7486047854980954.0,3.021646758386617e+17,1.3584015451253192e+18,3.703672466203645e+17
6516.834353714399,5.04662791060302e+16,2.2846325278801185e+18,2168327391809437.2,677048531257921.5,8042999540606818.0,3.30780693604092e+17,1.4844999279840947e+18,4.079972517222234e+17
7169.5177890858395,5.098249093189716e+16,2.4949874954823854e+18,2190506774493271.0,726088248445094.5,8625510565336424.0,3.6194179265860186e+17,1.6210978654152036e+18,4.494232408884112e+17
7887.469567994424,5.155392267036223e+16,2.723502698962961e+18,2215058722213184.5,777205513604469.4,9232691726884736.0,3.958576803687798e+17,1.7688409195182874e+18,4.950252204428329e+17
8677.216524793868,5.21884189894573e+16,2.971463843968626e+18,2242320290921229.0,830320621709207.0,9863597534477948.0,4.3276285183661434e+17,1.9283564984286746e+18,5.452198362667679e+17
9545.938177273256,5.289610457315418e+16,3.240192054248709e+18,2272726501950624.0,885368313261561.2,1.0517456348624038e+16,4.729294604955678e+17,2.1002270665226245e+18,6.004638714935255e+17
10501.531995000581,5.3690783927024e+16,3.5310298012225925e+18,2306870487593831.5,942332912147047.4,1.1194089447434542e+16,5.1669138790170675e+17,2.2849461966324636e+18,6.612581399142209e+17
11552.68519450064,5.459246837084572e+16,3.845318786615436e+18,2345612068262744.0,1001311764687136.8,1.1894667323072186e+16,5.6448874254951814e+17,2.4828442051598295e+18,7.281517793792193e+17
12708.953713950705,5.5631917085766824e+16,4.184363001999234e+18,2390272866369131.0,1062628684629246.9,1.262306126519992e+16,6.169470287328925e+17,2.693961224245791e+18,8.017468691185844e+17
13980.849085345777,5.68584035957941e+16,4.5493634167019003e+18,2442970003447574.5,1127028752185926.5,1.3388161528692982e+16,6.750046026230336e+17,2.9178389507275904e+18,8.827032994711482e+17
15379.933993880357,5.835121699770989e+16,4.941299734874845e+18,2507110256600731.5,1195974343880494.5,1.4207392023204822e+16,7.400702092907876e+17,3.1532244201681746e+18,9.717434117944905e+17
16918.927393268394,6.0231094885319224e+16,5.36072507444688e+18,2587881252950331.5,1271967629526791.5,1.511051477933071e+16,8.140785223499203e+17,3.3977870519750676e+18,1.0696580415747572e+18
18611.820132595236,6.2658631154816776e+16,5.807454478978096e+18,2692182971277285.5,1358601733924435.0,1.6140155725196758e+16,8.991428352001075e+17,3.648146970780266e+18,1.1773151014125018e+18
20474.00214585476,6.580399464971483e+16,6.280197091826441e+18,2827326533671709.0,1459930448725892.0,1.7344175422778264e+16,9.96624753729576e+17,3.900464041032621e+18,1.2956728700093624e+18
22522.40236044024,6.979327043636342e+16,6.776273986878971e+18,2998728598824423.0,1579191504863301.2,1.876037844898735e+16,1.1061108141952146e+18,4.151237326019117e+18,1.425794277675589e+18
24775.642596484264,7.465847555551523e+16,7.291585490612179e+18,3207763776251641.5,1717490264671570.2,2.0400887990248064e+16,1.2251011635767334e+18,4.3976424834317245e+18,1.5688572260170278e+18
27254.206856132692,8.030772339476638e+16,7.820927069944742e+18,3450482929855208.5,1872913225565274.2,2.224181916528388e+16,1.3495297762999864e+18,4.637362317889747e+18,1.72616203703953e+18
29980.627541745966,8.65203624985675e+16,8.358656246996246e+18,3717404686124507.5,2040282365554961.5,2.42207364974106e+16,1.4746841639546314e+18,4.868333028678164e+18,1.8991402683157834e+18
32979.69029592056,9.297872098383566e+16,8.899575794943907e+18,3994879758041824.0,2211879768121570.0,2.6245674581648748e+16,1.5961498399678577e+18,5.088628303551978e+18,2.08936649633243e+18
36278.65932551262,9.933939866325635e+16,9.439745720098855e+18,4268154248954517.0,2379226200898869.5,2.821646121803914e+16,1.7105126208723036e+18,5.296457394945963e+18,2.2985724639494303e+18
39907.525258063884,1.0531544484896322e+17,9.9769276436738e+18,4524900291152632.0,2535191628603053.5,3.0049598410378284e+16,1.8156333785696036e+18,5.490206315237672e+18,2.528662814687414e+18
43899.277783870275,1.1072639020448368e+17,1.0510577315726393e+19,4757365266576902.0,2675327135108097.5,3.169364237330213e+16,1.910505184703738e+18,5.66848723027153e+18,2.781732175771632e+18
48290.20556225731,1.1549829129563638e+17,1.1041555636381393e+19,4962373341961346.0,2797924302737485.5,3.312952022336921e+16,1.9948921473756285e+18,5.830191578720005e+18,3.060083801122056e+18
53120.22611848305,1.1963106035625773e+17,1.1571809367106159e+19,5139921613013494.0,2903208956601496.0,3.436079125552858e+16,2.0689758377702676e+18,5.97454840254269e+18,3.366250144611792e+18
58433.24873033136,1.231613555268457e+17,1.2104174888216306e+19,5291585681756350.0,2992384571445574.0,3.5402308236064788e+16,2.133129642932209e+18,6.101181929658864e+18,3.703015681609091e+18
64277.57360336451,1.2613772068619826e+17,1.264232066703532e+19,5419451606934807.0,3066966284038996.5,3.627239461605791e+16,2.187826287354175e+18,6.210155626874395e+18,4.073442219613511e+18
70706.33096370097,1.2860987166908715e+17,1.3190766427863294e+19,5525655646994329.0,3128473019408218.0,3.698925979843015e+16,2.2336269037099213e+18,6.301989451507813e+18,4.480896812511621e+18
77777.96406007107,1.306267905066213e+17,1.3754908493213796e+19,5612302412959311.0,3178354169177481.5,3.7570167171534e+16,2.2711965212598495e+18,6.377641821459417e+18,4.929082536234263e+18
85556.76046607818,1.3223795233295701e+17,1.4341007463476408e+19,5681517599590321.0,3218010369865791.0,3.803169991768608e+16,2.301311335866803e+18,6.438454668747786e+18,5.422072278641742e+18
94113.436512686,1.3349434559600149e+17,1.4956125921133793e+19,5735491833078895.0,3248821616187546.5,3.839011007722372e+16,2.3248447801882117e+18,6.486066517631539e+18,5.96434585419155e+18
103525.78016395462,1.3444817969412722e+17,1.5608026180114029e+19,5776468128386673.0,3272150121379067.5,3.866137184616191e+16,2.3427337062369843e+18,6.522303540084453e+18,6.560830764002508e+18
113879.3581803501,1.3515143093904147e+17,1.630504938709082e+19,5806679439937269.0,3289317053806188.5,3.886092928284123e+16,2.3559325190833756e+18,6.549061539698655e+18,7.216946971593143e+18
125268.29399838512,1.3565381776384696e+17,1.7056000182993136e+19,5828261691274233.0,3301564557437883.5,3.900327067690095e+16,2.3653645559705795e+18,6.568192608611228e+18,7.93865610372184e+18
137796.12339822366,1.3600079606933542e+17,1.787005859028133e+19,5843167667624248.0,3310015965050424.5,3.910147903797472e+16,2.3718788126892913e+18,6.58140879270262e+18,8.732515526149412e+18
151576.73573804603,1.3623199852761654e+17,1.875673490041847e+19,5853099977999447.0,3315644183868718.5,3.9166874385219896e+16,2.3762177286511514e+18,6.590211766142755e+18,9.605737788549876e+18
166735.40931185064,1.3638034185200045e+17,1.97258756646665e+19,5859472710135979.0,3319254040634552.0,3.920879299416507e+16,2.3789989209296486e+18,6.59585290018522e+18,1.0566255981954683e+19
183409.95024303574,1.3647184254980093e+17,2.078772111808833e+19,5863403519214799.0,3321479498005706.5,3.92346480947395e+16,2.380710984176985e+18,6.599323154818468e+18,1.1622795605431134e+19
201751.94526733932,1.3652605292570589e+17,2.195300737082191e+19,5865732360516270.0,3322797988136773.0,3.9249965805935464e+16,2.3817212592031544e+18,6.601367965995024e+18,1.2784953596543429e+19
221928.13979407327,1.3655692554662757e+17,2.3233102925134787e+19,5867058627431252.0,3323548863274064.5,3.925868906677304e+16,2.382291930672792e+18,6.602519531690571e+18,1.4063285240667326e+19
244121.9537734806,1.3657390331975536e+17,2.4640167352666087e+19,5867787981043518.0,3323961791729476.0,3.9263486208856344e+16,2.3826004303931914e+18,6.603138045146018e+18,1.5469399737825526e+19
268535.1491508287,1.3658303839172762e+17,2.618732150323159e+19,5868180417523093.0,3324183972245955.5,3.926606734920003e+16,2.3827604442470574e+18,6.603454281741993e+18,1.7016065307111846e+19
295389.6640659116,1.3658799977490982e+17,2.7888821695146525e+19,5868393555165474.0,3324304641521871.0,3.926746919693606e+16,2.382840838560924e+18,6.603607995687169e+18,1.8717324693729907e+19
