t(s),Total solute volume 1,Total retention volume 1,Total 1 volume 1,Total 2 volume 1,Total 3 volume 1,Total 4 volume 1,Total 5 volume 1,Total 6 volume 1
1.0,3048960015052811.5,3059211791922458.0,10251776869658.717,0.0,0.0,0.0,0.0,0.0
2.1,4187957294612954.5,5026114695199772.0,14081522592986.547,76050628277.92747,467744352690.4829,13245316296533.412,325206226620814.4,485080540095505.2
3.3100000000000005,4851449207753990.0,6869226347143534.0,16312437080108.355,184975469590.14343,1137679156872.703,32218678738324.938,790874891132268.8,1177048477812372.0
4.641000000000001,5289677370589346.0,8748369820971002.0,17785928562777.992,317830546095.1342,1954796170647.306,55365704228923.984,1359254953355011.0,2024013237518188.0
6.105100000000002,5598420685206396.0,1.0729376854996288e+16,18824042354880.418,471543952826.36884,2900202387407.5005,82153914662801.56,2017458748888041.5,3009147717543914.5
7.7156100000000025,5825212606498400.0,1.2852255780832948e+16,19586604122693.81,645278123309.8136,3968746670333.777,112439815311783.69,2762027723451111.5,4128375006655318.0
9.487171000000004,5996924938351595.0,1.5147825515411088e+16,20163967160887.4,839321397529.039,5162202609149.82,146276267403417.1,3594278712020218.0,5384180106468297.0
11.435888100000005,6130016876253427.0,1.7643563605954828e+16,20611473591907.645,1054638359212.1913,6486502981144.511,183834414912949.88,4518417883544793.0,6783141816311389.0
13.579476910000007,6235142255109586.0,2.0366183859893244e+16,20964945694303.633,1292661356847.8672,7950457552461.153,225367560218784.34,5540666513315153.0,8334799466646128.0
15.937424601000009,6319491764683919.0,2.3342987441975828e+16,21248561326668.473,1555189745310.539,9565133392442.215,271193797620682.56,6668840280448778.0,1.0051092714758004e+16
18.53116706110001,6388077542867431.0,2.6602690730515784e+16,21479173221509.516,1844340873482.9048,11343553440440.688,321687674992750.94,7912146574918350.0,1.1946111870201836e+16
21.384283767210015,6444488433716057.0,3.017601055844241e+16,21668848451808.656,2162530593979.5046,13300576645935.025,377277031601413.75,9281107727330728.0,1.4036005410102526e+16
24.522712143931017,6491352676636948.0,3.4096134369650828e+16,21826424169216.31,2512470526575.755,15452881152076.44,438442798430521.94,1.0787556347570236e+16,1.633899077116519e+16
27.97498335832412,6530632683103837.0,3.8399138727139944e+16,21958498756291.25,2897176029720.5835,17819013341074.543,505720719939853.6,1.2444677631791128e+16,1.8875433004177976e+16
31.772481694156536,6563818767721906.0,4.312439062981322e+16,22070083224595.566,3319981494980.3086,20419481922275.363,579704420358714.6,1.4267084644062116e+16,2.1667973251028584e+16
35.949729863572195,6592059866182562.0,4.831495203394968e+16,22165040738587.844,3784561064243.6353,23276885376956.84,661049498220961.6,1.6270918881870932e+16,2.4741697300495416e+16
40.544702849929415,6616253763493999.0,5.401800079582304e+16,22246389997555.152,4294953685642.627,26416066093422.492,750478477653184.4,1.847397194528417e+16,2.812433919961514e+16
45.59917313492236,6637110628658337.0,6.02852774647399e+16,22316518863589.055,4855591886507.427,29864287369830.883,848786528785189.4,2.0895826167584356e+16,3.1846517741592156e+16
51.1590904484146,6655198553178935.0,6.717356533930282e+16,22377337479539.035,5471333908229.426,33651431101809.086,956847920120422.4,2.355801329489543e+16,3.5942005468618444e+16
57.27499949325607,6670976715141327.0,7.474521015639648e+16,22430389779396.312,6147499000891.784,37810214913051.49,1075623197200267.1,2.6484191071614388e+16,4.044803106874729e+16
64.00249944258168,6684819883374577.0,8.306868530078747e+16,22476935880706.57,6889905759048.861,42376428001079.01,1206167102228339.5,2.9700338086156224e+16,4.540561695938748e+16
71.40274938683986,6697036764508541.0,9.22192082822419e+16,22518013774433.79,7704913418131.358,47389185204960.87,1349637262829673.5,3.3234967562692852e+16,5.08599545798135e+16
79.54302432552385,6707883909227931.0,1.0227941430375302e+17,22554486083136.87,8599466036640.318,52891198837157.81,1507303687252390.2,3.711936100858935e+16,5.686082054772645e+16
88.49732675807624,6717576373578063.0,1.1334009296826642e+17,22587075908385.812,9581139469274.373,58929067698973.734,1680559109452076.5,4.138782277749908e+16,6.3463037424660424e+16
98.34705943388387,6726295980761599.0,1.2550099450075654e+17,22616394610102.78,10658190993330.852,65553582436347.03,1870930231373162.8,4.607795670261533e+16,7.072698341796689e+16
109.18176537727226,6734197789168639.0,1.3887171227240378e+17,22642963554572.426,11839611385631.986,72820045992997.08,2080089911706669.5,5.123096600181817e+16,7.871915594877694e+16
121.09994191499949,6741415206037445.0,1.535726488883258e+17,22667231308539.887,13135179158723.268,80788607374275.02,2309870350548172.0,5.6891977658511544e+16,8.7512794655387e+16
134.20993610649944,6748064069151194.0,1.697360736295216e+17,22689587363448.926,14555516550831.176,89524606233108.5,2562277317603579.0,6.311039243627363e+16,9.718857009634542e+16
148.6309297171494,6754245935677896.0,1.8750727961614064e+17,22710373193790.87,16112146720766.875,99098924908937.17,2839505467642670.0,6.994026158581493e+16,1.0783534518218146e+17
164.49402268886433,6760050757267123.0,2.0704584967724102e+17,22729891251810.84,17817551422554.605,109588343466553.33,3143954780396797.0,7.744069113960973e+16,1.195510172138264e+17
181.94342495775078,6765559076842698.0,2.2852704056669674e+17,22748412353973.53,19685228220317.64,121075891965107.56,3478248152521682.0,8.567627445017803e+16,1.324434493546145e+17
201.13776745352587,6770843850413665.0,2.5214329585062874e+17,22766181806594.473,21729746046604.402,133651192605932.86,3845250155947891.0,9.47175532962337e+16,1.466315014275735e+17
222.25154419887846,6775971973379612.0,2.781058985027614e+17,22783424537866.996,23966797601234.953,147410782526376.75,4248086959121720.0,1.0464150743704253e+17,1.6224617112855213e+17
245.47669861876633,6781005572935132.0,3.0664677497347776e+17,22800349443426.297,26413246727077.504,162458405789862.0,4690167384338422.0,1.1553207191561469e+17,1.794318580986296e+17
271.024368480643,6786003114662163.0,3.380204632377051e+17,22817153107139.305,29087168478246.992,178905260534823.7,5175205044444391.0,1.2748068066762181e+17,1.9834776482885677e+17
299.1268053287073,6791020361080082.0,3.7250625806593395e+17,22834023024120.02,32007879109977.473,196870184255708.16,5707241464295377.0,1.4058683405198923e+17,2.191694501021784e+17
330.03948586157804,6796111211967086.0,4.1041054748960403e+17,22851140426215.004,35195952663938.63,216479756773773.66,6290670044936275.0,1.5495868674248835e+17,2.4209055264034778e+17
364.0434344477359,6801328450064159.0,4.520693551324601e+17,22868682789347.44,38673220196204.445,237868296602311.97,6930260669712455.0,1.7071365096271302e+17,2.673247048503817e+17
401.44777789250946,6806724410874082.0,4.978511037367144e+17,22886826085639.586,42462746998706.03,261177722127947.62,7631184679363602.0,1.8797900825890694e+17,2.9510765909235866e+17
442.5925556817604,6812351591337842.0,5.481596158083452e+17,22905746830018.535,46588782404714.375,286557244352633.56,8399039855264564.0,2.068925208288062e+17,3.256996517593492e+17
487.8518112499365,6818263208954513.0,6.034373678186917e+17,22925623960192.094,51076675957042.64,314162852945634.4,9239874943760372.0,2.276030307963539e+17,3.593880337167607e+17
537.6369923749302,6824513720210336.0,6.641690148080084e+17,22946640579807.273,55952752875400.94,344156552170650.56,1.0160213127158808e+16,2.5027103267210288e+17,3.964901993429089e+17
592.4006916124232,6831159304845513.0,7.308852025182054e+17,22968985586742.105,61244140919430.99,376705298081396.3,1.1167073695346316e+16,2.7506920049316554e+17,4.3735685060026106e+17
652.6407607736655,6838258320386899.0,8.041666843160216e+17,22992855201419.504,66978539954151.89,411979583512181.5,1.2267990993020024e+16,3.021828467174663e+17,4.823756373064812e+17
718.9048368510321,6845871729405666.0,8.8464876013689e+17,23018454403411.938,73183924851409.1,450151613237013.7,1.347102950803137e+16,3.3181028477869376e+17,5.319752201282651e+17
791.7953205361354,6854063500034731.0,9.730260544744018e+17,23045998278135.395,79888171893925.92,491393008780890.5,1.4784793723373296e+16,3.6416306121993894e+17,5.866298088521027e+17
871.9748525897489,6862900978317575.0,1.0700576500627325e+18,23075713268829.03,87118598704439.6,535871981456912.94,1.6218431076487894e+16,3.9946601645822317e+17,6.468642352562747e+17
960.1723378487239,6872455228887221.0,1.176572593371593e+18,23107838322049.574,94901408048877.84,583749914180566.6,1.778162605330617e+16,4.3795712545480435e+17,7.132596274740453e+17
1057.1895716335964,6882801338221117.0,1.2934757874048952e+18,23142625907330.473,103261026841102.92,635177298592821.4,1.9484583090741204e+16,4.798870608809031e+17,7.864597611436872e+17
1163.9085287969563,6894018672219739.0,1.4217542866550725e+18,23180342883260.78,112219333523183.64,690288985333541.6,2.1337995572467388e+16,5.255184118356285e+17,8.6717817191302e+17
1281.299381676652,6906191077051794.0,1.5624840085597885e+18,23221271172803.895,121794769956423.42,749198723464045.1,2.335299778423042e+16,5.751244809342813e+17,9.562061239996321e+17
1410.4293198443174,6919407009038783.0,1.7168368756551007e+18,23265708200020.043,132001338303661.48,811992991699880.8,2.5541096256699776e+16,6.289875718965408e+17,1.0544215404546191e+18
1552.4722518287492,6933759575773205.0,1.8860884031358843e+18,23313967028321.6,142847489387556.16,878724160973261.9,2.7914076482254468e+16,6.87396669035213e+17,1.1627990124252562e+18
1708.7194770116243,6949346466637476.0,2.071625748160174e+18,23366376126852.29,154334916924924.3,949403076455882.8,3.048388057155534e+16,7.506443998907675e+17,1.2824210168617034e+18
1880.5914247127869,6966269746415166.0,2.274956240568261e+18,23423278676529.266,166457282052097.16,1023991208700466.0,3.3262451051391348e+16,8.190231635508165e+17,1.4144904844502088e+18
2069.6505671840655,6984635474618760.0,2.4977164208150953e+18,23485031290078.258,179198904578072.84,1102392597444023.0,3.6261535713073304e+16,8.928203002302368e+17,1.5603448728638556e+18
2277.615623902472,7004553150897576.0,2.7416816184717967e+18,23552002147284.2,192533472704818.78,1184445905709076.0,3.949244855441531e+16,9.723121821548973e+17,1.721471903231023e+18
2506.3771862927197,7026134852554093.0,3.0087761232771174e+18,23624568094990.918,206422835529053.84,1269916979187050.8,4.296578135921614e+16,1.0577570919446657e+18,1.8995271507378706e+18
2758.0149049219917,7049494140393785.0,3.3010840151499013e+18,23703110968151.547,220815964599311.94,1358492441047360.0,4.6691062078374216e+16,1.1493867984872355e+18,2.096353648927285e+18
3034.816395414191,7074744587217375.0,3.620860752856475e+18,23788012642057.414,235648181481182.75,1449774918153432.5,5.067635610229311e+16,1.2473967361080174e+18,2.31400370494667e+18
3339.2980349556105,7101997911519616.0,3.9705456581661435e+18,23879648757120.742,250840765054203.16,1543280598110163.8,5.492780883160237e+16,1.3519347524001142e+18,2.5547630980109814e+18
3674.227838451172,7131361652529680.0,4.352775484219205e+18,23978380901472.8,266301059670207.25,1638439862540921.0,5.944913021693564e+16,1.4630884460681446e+18,2.821177826978479e+18
4042.6506222962894,7162936330996962.0,4.770399323373036e+18,24084547064441.6,281923205742594.75,1734601745268902.2,6.424102546112439e+16,1.5808712036476198e+18,3.11608354843521e+18
4447.915684525919,7196812046660824.0,5.226495193363478e+18,24198450195946.0,297589602862658.2,1831042894224898.5,6.930058075581032e+16,1.7052071596483528e+18,3.442637809965372e+18
4893.707252978511,7233064476747458.0,5.724388742734136e+18,24320344751914.2,313173188756953.94,1926981552000952.0,7.462061893831912e+16,1.8359154528316564e+18,3.804355131401907e+18
5384.077978276362,7271750262521697.0,6.2676746374983e+18,24450421182108.746,328540572370800.9,2021596793872228.2,8.018904737565597e+16,1.9726943334959186e+18,4.205144918576757e+18
5923.485776103998,7312901805587070.0,6.86024132939787e+18,24588788433301.312,343555994630143.1,2114052864735102.5,8.598822914827256e+16,2.115105890982953e+18,4.649352109813254e+18
6516.834353714399,7356521545035636.0,7.506300057646536e+18,24735454706863.61,358086007077031.75,2203527944230978.2,9.199441844260483e+16,2.2625624100545687e+18,5.141800358198286e+18
7169.5177890858395,7402575853054640.0,8.210419092693831e+18,24890306933465.77,372004661309717.5,2289246071146204.0,9.817731138911776e+16,2.414315614759121e+18,5.687837449653145e+18
7887.469567994424,7450988771439166.0,8.977564379628074e+18,25053089712839.1,385198900218038.1,2370510330561520.0,1.044997734172429e+17,2.5694502944665037e+18,6.293382560652396e+18
8677.216524793868,7501635913676147.0,9.813147862255886e+18,25223384810250.93,397573749412377.5,2446734836243565.0,1.1091781206221843e+17,2.726883992512287e+18,6.964974889797236e+18
9545.938177273256,7554338972318380.0,1.0723084843099881e+19,25400592688195.258,409056842041232.25,2517472637316521.0,1.1738086803615659e+17,2.885374524107874e+18,7.70982318191149e+18
10501.531995000581,7608861389539602.0,1.1713861731564196e+19,25583917949138.94,419601792209372.75,2582436564396143.5,1.2383249476392638e+17,3.043537016110363e+18,8.535855737025839e+18
11552.68519450064,7664905853673601.0,1.2792615422664278e+19,25772360917921.25,429189979211817.06,2641510315726258.0,1.3021148469849949e+17,3.19987185986572e+18,9.451770699590502e+18
12708.953713950705,7722114352381278.0,1.3967225305575657e+19,25964717820508.605,437830427304596.9,2694747833713628.0,1.3645347692903974e+17,3.3528043768082524e+18,1.0467086794507164e+19
13980.849085345777,7780071513408329.0,1.5246418509001716e+19,26159592016880.434,445557661451977.0,2742360223338612.5,1.4249304307149347e+17,3.5007360730146657e+18,1.1592195243925322e+19
15379.933993880357,7838311863041852.0,1.6639888453134877e+19,26355418406710.76,452427669064862.9,2784690998044055.5,1.482661971522539e+17,3.642106105331763e+18,1.2838414364702294e+19
16918.927393268394,7896331400425004.0,1.8158426129847937e+19,26550502346609.332,458512363894218.3,2822182077251729.0,1.537132129581294e+17,3.775460068807421e+18,1.421804927173848e+19
18611.820132595236,7953603507211777.0,1.981406284542087e+19,26743073144429.586,463893180178865.2,2855334390480285.5,1.5878156565356234e+17,3.899521603673212e+18,1.5744460101943146e+19
20474.00214585476,8009598698009410.0,2.162022254458956e+19,26931350467772.4,468654568941357.3,2884667833993024.0,1.634287538991334e+17,4.0132608669232727e+18,1.7432143071315698e+19
22522.40236044024,8063807117338150.0,2.359188143240557e+19,27113619987335.46,472878181700152.8,2910685415751728.5,1.6762471797614205e+17,4.1159529508370135e+18,1.929682927925766e+19
24775.642596484264,8115762095681369.0,2.5745732570736386e+19,27288312581337.94,476638394335170.75,2933845616211380.0,1.7135356312401024e+17,4.207219209323768e+18,2.1355606263869755e+19
27254.206856132692,8165062616636402.0,2.8100353571157914e+19,27454079878663.473,479999566407514.0,2954545413531086.5,1.746143370775649e+17,4.287045449954573e+18,2.362706672244932e+19
29980.627541745966,8211392353786582.0,3.0676376487767577e+19,27609858268112.79,483015105267425.2,2973114417577273.5,1.7742070078182048e+17,4.3557731590607457e+18,2.6131487496190157e+19
32979.69029592056,8254533113860381.0,3.349666047766283e+19,27754914099475.566,485728087584926.2,2989818605943182.5,1.797994642085823e+17,4.414063167953251e+18,2.889104001077951e+19
36278.65932551262,8294371103968836.0,3.658646956659479e+19,27888864756427.934,488172959303677.56,3004870724293085.5,1.8178811514200714e+17,4.4628349528063196e+18,3.193003119499411e+19
39907.525258063884,8330895357064645.0,3.997365965149335e+19,28011673362387.52,490377737772518.4,3018443807892343.0,1.8343161777721424e+17,4.503188362086682e+18,3.527517194305334e+19
43899.277783870275,8364188734902102.0,4.3688880361173025e+19,28123618529095.617,492366184353592.06,3030684548820996.0,1.8477886692747645e+17,4.5363171843018286e+18,3.895586894685725e+19
48290.20556225731,8394412954873197.0,4.776579828806273e+19,28225244011182.43,494159567957323.94,3041724165373577.5,1.858792258473105e+17,4.563424961853562e+18,4.3004535578429465e+19
53120.22611848305,8421789832858770.0,5.22413482252309e+19,28317295637519.25,495777839655792.44,3051685657645316.5,1.8677953957396918e+17,4.585652548561725e+18,4.745691856646941e+19
58433.24873033136,8446581246383468.0,5.715601840173021e+19,28400653939724.3,497240223413375.0,3060687472176202.5,1.875219094710493e+17,4.6040243033991117e+18,5.235243927926433e+19
64277.57360336451,8469070164330596.0,6.2554174498168685e+19,28476270366831.207,498565354201596.44,3068844377915546.0,1.8814236459571338e+17,4.619416153127412e+18,5.773455102427873e+19
70706.33096370097,8489544545340254.0,6.848442576915933e+19,28545113145548.258,499771147039728.56,3076266680364926.0,1.8867040813038602e+17,4.632544931012873e+18,6.365111630252994e+19
77777.96406007107,8508285146611565.0,7.500003526329675e+19,28608126288773.887,500874569468862.1,3083058835179053.5,1.8912928803710877e+17,4.643975272345879e+18,7.015480987623615e+19
85556.76046607818,8525557504989262.0,8.215937521093526e+19,28666202632917.277,501891441067661.4,3089318222943833.5,1.8953676463494006e+17,4.654138508040151e+18,7.730355450488827e+19
94113.436512686,8541607717709050.0,9.002642829743694e+19,28720169651118.74,502836324153891.75,3095134481387101.0,1.8990613114297245e+17,4.663357614499621e+18,8.516099625310138e+19
103525.78016395462,8556661254657873.0,9.867133573849213e+19,28770785459580.797,503722519720819.44,3100589482883931.0,1.902472768223974e+17,4.671873113727063e+18,9.379702560389977e+19
113879.3581803501,8570923890604266.0,1.0817099367254552e+20,28818741952053.797,504562149427677.2,3105757840138178.5,1.905676457734478e+17,4.679866372058264e+18,1.0328834959209175e+20
125268.29399838512,8584583904361144.0,1.1860970016535113e+20,28864672194235.75,505366303139011.7,3110707815177360.5,1.908730147909054e+17,4.687478460693882e+18,1.1371911916717135e+20
137796.12339822366,8597814870610432.0,1.3007985587493505e+20,28909159810936.05,506145199030247.56,3115502304378479.5,1.9116807294202643e+17,4.694824179620785e+18,1.251816152508383e+20
151576.73573804603,8610778587924330.0,1.4268272200685792e+20,28952748831187.598,506908362030817.5,3120199937125027.5,1.9145682446562525e+17,4.702001786767888e+18,1.377769965559885e+20
166735.40931185064,8623627884382814.0,1.5652923953364848e+20,28995953121797.016,507664788987085.9,3124856092359590.0,1.9174285458989808e+17,4.709099404511777e+18,1.5161611212982813e+20
183409.95024303574,8636509190116471.0,1.717409137579412e+20,29039265037211.188,508423100104673.9,3129523830703515.5,1.9202949997089504e+17,4.716199120707951e+18,1.668203816418761e+20
201751.94526733932,8649564859178027.0,1.884507681979616e+20,29083163226534.25,509191675634260.8,3134254735762158.5,1.9231995861679552e+17,4.723379631281757e+18,1.8352274651362873e+20
221928.13979407327,8662935271381107.0,2.068043715002659e+20,29128119700712.125,509978779604407.44,3139099675712378.5,1.9261736168069658e+17,4.730718031685247e+18,2.0186869496505408e+20
244121.9537734806,8676760762849377.0,2.2696094065722783e+20,29174606323776.086,510792673470835.75,3144109502830783.0,1.9292483861543606e+17,4.738291126877372e+18,2.220173638541894e+20
268535.1491508287,8691183433221646.0,2.4909452324268202e+20,29223100889358.86,511641722504649.06,3149335708333326.0,1.9324554900365472e+17,4.746176590672956e+18,2.4414271971904068e+20
295389.6640659116,8706348883983404.0,2.7339526051814487e+20,29274092965630.65,512534498126076.94,3154831052261515.0,1.9358272998979418e+17,4.754453854077877e+18,2.6843482094554975e+20
324929.6304725028,8722407913968406.0,3.000707323912972e+20,29328089596225.65,513479877716883.25,3160650177851286.5,1.9393973394155104e+17,4.763205084153229e+18,2.9510116170714346e+20
357423.5935197531,8739518215732253.0,3.293473837900347e+20,29385621004099.83,514487144484117.5,3166850226218800.5,1.9432006613362963e+17,4.772516099508371e+18,3.243680973831855e+20
