t(s),Total solute volume 1,Total retention volume 1,Total 1 volume 1,Total 2 volume 1,Total 3 volume 1,Total 4 volume 1,Total 5 volume 1,Total 6 volume 1
1.0,1752344684420314.0,1752633610425616.5,288926005305.95715,0.0,0.0,0.0,0.0,0.0
2.1,2687292726662386.5,2697910507776830.0,443079924753.3755,15459438813.939892,43008282901.27499,372742807883.30133,4443953986504.774,5299536673582.011
3.3100000000000005,3434824811196744.5,3462698031744232.0,566332764006.9833,41476474483.6913,115388047263.82692,1000232270041.3046,11925052202970.605,14224738788708.91
4.641000000000001,4098234474383196.0,4150256545415451.0,675715526703.5527,77961808836.58655,216891019356.52744,1880497529978.599,22419783689489.098,26751221457886.996
6.105100000000002,4715753818689065.0,4799359514688699.0,777531909050.909,125712057643.11627,349733584588.84564,3032974738695.8794,36159854065909.6,43159889643753.43
7.7156100000000025,5306296849181005.0,5429752826428583.0,874900445845.7535,185965109974.41992,517359813077.5134,4487809301033.909,53504641625616.65,63885300952048.63
9.487171000000004,5880785072177055.0,6053411466940598.0,969621871372.3381,260290905151.11734,724137619867.1106,6283245698812.905,74910075881451.84,89479022786883.08
11.435888100000005,6446139142968760.0,6678514809505823.0,1062837260934.0793,350563594363.3168,975281341600.6936,8464984005327.58,100920962663956.75,120601037670874.17
13.579476910000007,7006982139407629.0,7311151646122911.0,1155308866027.4385,458961351018.6932,1276851237448.1814,11086209410500.518,132171331989723.88,158020843860572.9
15.937424601000009,7566445741694673.0,7956134803020102.0,1247553036993.9346,587975977074.4468,1635780249182.7388,14207865942330.205,169387696248237.34,202622189871599.34
18.53116706110001,8126564773067411.0,8617405252910633.0,1339905274757.5269,740423642218.3165,2059903920835.5408,17898967110048.26,213392747635341.97,255408532260027.12
21.384283767210015,8688463123043597.0,9298225123426932.0,1432550885790.2434,919451078375.4614,2557977684340.63,22236808175773.496,265107881991309.47,317507330567743.0
24.522712143931017,9252432317818306.0,1.000125822626584e+16,1525537936777.7876,1128533070301.5708,3139669941414.66,27306981343056.543,325553372310985.5,390171813844992.5
27.97498335832412,9817962542532622.0,1.0728596193280924e+16,1618782369566.1958,1371458494626.0027,3815523298950.9653,33203129155277.45,395845420533263.06,474779336896631.56
31.772481694156536,1.0383765433852228e+16,1.148176887972506e+16,1712071759199.5564,1652303773693.3677,4596880805290.445,40026410317202.38,477189780149571.8,572825999067929.1
35.949729863572195,1.0947814425516396e+16,1.2261765289944644e+16,1805071966084.6926,1975394323308.8875,5495778799662.788,47884693536764.625,570872135476130.4,685917790326306.8
40.544702849929415,1.1507417257614662e+16,1.3069081160137636e+16,1897339091299.1316,2345256154691.8345,6524812386119.991,56891533317219.42,678245880374209.2,815759081199434.8
45.59917313492236,1.2059325631516642e+16,1.3903800550005344e+16,1988337556460.5747,2766561047591.347,7696983039531.603,67165012290616.52,800718304667824.9,964139719886671.1
51.1590904484146,1.2599879315025452e+16,1.4765711704947448e+16,2077463863736.2917,3244069559483.941,9025540210630.64,78826555673410.55,939736446658774.4,1132922313955967.5
57.27499949325607,1.3125176699724198e+16,1.5654452489408716e+16,2164074717279.9846,3782576591989.6636,10523830066835.94,91999835189038.53,1096774010269819.2,1324031462849569.5
64.00249944258168,1.3631260873145092e+16,1.656967789184611e+16,2247517702746.2812,4386864361732.329,12205164857085.217,106809883873112.31,1273320793726785.2,1539446794179546.5
71.40274938683986,1.4114309260646754e+16,1.751124106119905e+16,2327162555376.6772,5061667460194.929,14082725937311.045,123382540603241.7,1470876045824511.0,1781201658171672.8
79.54302432552385,1.4570815195318472e+16,1.8479379423943532e+16,2402431097180.493,5811654217298.272,16169512187348.469,141844333572889.75,1690947050896102.5,2051389246654252.8
88.49732675807624,1.4997750831941132e+16,1.9474898044736868e+16,2472824098129.9,6641427731252.751,18478343180743.234,162322893445644.4,1935054023037259.5,2352177701302695.0
98.34705943388387,1.5392702293477938e+16,2.049934313244142e+16,2537943559063.611,7555548602813.877,21021922785996.074,184947957356066.06,2204742037393565.0,2685835429265987.0
109.18176537727226,1.5753969721970302e+16,2.1555159320686348e+16,2597509208040.962,8558579572780.801,23812963762493.62,209852983100368.7,2501600227518105.0,3054767335554267.0
121.09994191499949,1.6080627043412872e+16,2.2645825143137268e+16,2651368354350.993,9655149967348.83,26864367533265.76,237177340012658.53,2827287847598826.5,3461562026257963.0
134.20993610649944,1.6372538805622738e+16,2.377596214943018e+16,2699498664731.992,10850035295059.111,30189446193340.0,267068983409553.06,3183566087522966.5,3909049292721787.5
148.6309297171494,1.6630334367504572e+16,2.495141451367884e+16,2742003907704.618,12148244813035.244,33802166785188.066,299687460062396.7,3572333820201197.5,4400366450404782.0
164.49402268886433,1.6855342814224106e+16,2.6179297807751136e+16,2779103222406.962,13555107750069.902,37717391945870.58,335207041319118.25,3995664854423218.0,4939031494866275.0
181.94342495775078,1.7049494920007524e+16,2.7468017738981336e+16,2811114954254.268,15076347483449.803,41951087159431.54,373819746257643.6,4455843858255467.5,5529020664863568.0
201.13776745352587,1.7215200894173748e+16,2.8827261860368564e+16,2838436497747.158,16718132561444.574,46520463717713.96,415738005327678.44,4955397975792952.0,6174847952297285.0
222.25154419887846,1.7355214180463872e+16,3.0267969262166724e+16,2861521839752.6685,18487094132618.043,51444028349070.54,461196727285367.9,5497121307285595.0,6881644402810449.0
245.47669861876633,1.7472492014653162e+16,3.1802284766353504e+16,2880858568292.455,20390300992612.016,56741515055924.7,510454566407804.0,6084089830231135.0,7655235680444592.0
271.024368480643,1.757006274038162e+16,3.344350495943468e+16,2896945995623.873,22435185830900.63,62433681291127.15,563794236538999.2,6719664930065875.0,8502217239330489.0
299.1268053287073,1.7650908184964982e+16,3.52060234163724e+16,2910275764405.4487,24629418990020.215,68541958186087.03,621521774311473.5,7407484374501370.0,9430027429654014.0
330.03948586157804,1.7717867003375492e+16,3.710528171763773e+16,2921315911086.905,26980728749987.88,75087952041079.69,683964705973721.2,8151440186983559.0,1.0447019824602806e+16
364.0434344477359,1.777356219092592e+16,3.915773148461727e+16,2930498914226.32,29496669495947.47,82092800795063.78,751469111968900.0,8955643348976261.0,1.1562536863541006e+16
401.44777789250946,1.782035332972494e+16,4.138081087780558e+16,2938213820902.9956,32184340924709.945,89576394171862.08,824395605042991.2,9824375519819476.0,1.2786987474300694e+16
442.5925556817604,1.7860311891887668e+16,4.3792937074399816e+16,2944802174719.7603,35050062671717.348,97556469584249.7,903114239406897.4,1.0762027985405854e+16,1.4131931623268712e+16
487.8518112499365,1.7895216283381304e+16,4.6413514414639704e+16,2950557198634.332,38099009536286.336,106047598062831.11,987998352521898.4,1.177302785906874e+16,1.5610174754869944e+16
537.6369923749302,1.7926562357959622e+16,4.926295638261723e+16,2955725528493.416,41334813121189.37,115060076217986.25,1079417312918230.5,1.2861751225590656e+16,1.7235874871281032e+16
592.4006916124232,1.7955584826578584e+16,5.236271850619971e+16,2960510743009.832,44759136523489.47,124598742489805.16,1177728114746245.0,1.4032422533557614e+16,1.902466464156091e+16
652.6407607736655,1.7983285215280264e+16,5.573533869340465e+16,2965077973448.793,48371230059356.79,134661739647469.12,1283265731042448.5,1.528899920443052e+16,2.0993790494971136e+16
718.9048368510321,1.8010462620718382e+16,5.9404481482934856e+16,2969558974588.323,52167478157017.016,145239251450669.34,1396332121328424.8,1.6635040238499534e+16,2.316227021380631e+16
791.7953205361354,1.8037744307781492e+16,6.3394983149838856e+16,2974057169644.7617,56140950677060.125,156312250054793.0,1517183792634952.0,1.8073557647638052e+16,2.555107014388278e+16
871.9748525897489,1.8065614040830852e+16,6.7732895531196536e+16,2978652321517.389,60280976036348.27,167851302187732.4,1646017842679761.5,1.9606849907829464e+16,2.8183302809310796e+16
960.1723378487239,1.809443683002456e+16,7.244552778022352e+16,2983404612953.826,64572758463049.0,179815495921121.72,1782956474898600.5,2.1236317362243404e+16,3.1084445454059856e+16
1057.1895716335964,1.8124479441113052e+16,7.756148699242003e+16,2988358028197.894,68997067142996.68,192151565033433.72,1928030071473842.2,2.296226066701696e+16,3.428257982261159e+16
1163.9085287969563,1.815592653370815e+16,8.31107207639192e+16,2993543013861.894,73530030368654.9,204793302964190.47,2081159045525272.0,2.4783664992946784e+16,3.780865331539235e+16
1281.299381676652,1.8188892661560692e+16,8.912456724236714e+16,2998978457528.1465,78143072289949.08,217661371026957.75,2242134868976892.8,2.6697974796522896e+16,4.169676149353225e+16
1410.4293198443174,1.8223430609657376e+16,9.563582111705499e+16,3004673062366.6465,82803032497446.97,230663613129621.25,2410600887919462.0,2.870086654667229e+16,4.598445175411644e+16
1552.4722518287492,1.8259536686541636e+16,1.026788272507726e+17,3010626219731.106,87472508271771.75,243695988489198.88,2586033788737000.5,3.078602979103512e+16,5.071304786147815e+16
1708.7194770116243,1.8297153666721548e+16,1.1028961721938451e+17,3016828494302.17,92110454642626.31,256644221194043.88,2767726856765363.0,3.2944970255717364e+16,5.592799493584907e+16
1880.5914247127869,1.8336172113658284e+16,1.185061077609957e+17,3023261842221.274,96673067204248.34,269386237559694.3,2954776458195037.0,3.516685209321551e+16,6.1679224529320504e+16
2069.6505671840655,1.8376430827697016e+16,1.273683838054179e+17,3029899684945.346,101114956003027.19,281795416412781.06,3146073448861198.5,3.743839960485907e+16,6.8021539651899784e+16
2277.615623902472,1.8417717165920624e+16,1.3691909198657283e+17,3036706961984.221,105390595413244.38,293744612713794.44,3340301432239768.5,3.974388130685368e+16,7.501502016646966e+16
2506.3771862927197,1.8459767974070796e+16,1.4720397281942214e+17,3043640284555.492,109456005374712.66,305110832934533.56,3535943902609374.0,4.206520047499066e+16,8.272544998915747e+16
2758.0149049219917,1.85022718481257e+16,1.582725603916168e+17,3050648308472.5894,113270585629067.52,315780346639976.75,3731302256109878.5,4.4382115555578264e+16,9.122476915122504e+16
3034.816395414191,1.8544873391877744e+16,1.7017907671820026e+17,3057672436132.832,116798990180884.5,325653922469112.3,3924526364396559.5,4.667261026441082e+16,1.0059155611242917e+17
3339.2980349556105,1.8587180039492064e+16,1.8298354305797862e+17,3064647941418.465,120012899224852.31,334651792271133.6,4113658818374051.5,4.89134260557914e+16,1.1091154880488411e+17
3674.227838451172,1.8628771850014764e+16,1.967531218406251e+17,3071505584611.7007,122892526501748.05,342717891999525.06,4296693017296943.0,5.108075840340509e+16,1.2227821664582235e+17
4042.6506222962894,1.866921443929979e+16,2.115636900788041e+17,3078173744606.4214,125427698025128.39,349822920429400.56,4471643994049045.5,5.315110293515017e+16,1.3479339991810624e+17
4447.915684525919,1.870807488869871e+16,2.2750162848285e+17,3084581041927.288,127618358746972.05,355965812083623.4,4636629284228693.0,5.51022185776641e+16,1.485680369803859e+17
4893.707252978511,1.8744940070315572e+16,2.446657910097833e+17,3090659360191.444,129474409459729.3,361173346144232.6,4789955398855307.0,5.691415412741036e+16,1.6372300299823773e+17
5384.077978276362,1.877943638890312e+16,2.6316959929425747e+17,3096347101145.371,131014844885900.78,365497802992632.3,4930203771924616.0,5.857026477117148e+16,1.8039008536727837e+17
5923.485776103998,1.881124951815898e+16,2.831431883339609e+17,3101592438778.522,132266247652941.86,369012813022665.44,5056308727892274.0,6.005812965510648e+16,1.98713119779689e+17
6516.834353714399,1.8840142382634804e+16,3.047355176571838e+17,3106356284174.2,133260778523844.88,371807782156429.25,5167619395183907.0,6.137027473841799e+16,2.1884930622398288e+17
7169.5177890858395,1.8865969493140156e+16,3.281163598335614e+17,3110614649125.871,134033874431961.27,373981479360015.6,5263937898581679.0,6.250461060469885e+16,2.409707158686999e+17
7887.469567994424,1.8888685860258756e+16,3.5347808869263136e+17,3114360115794.6255,134621906621458.6,375635488674352.75,5345527798410386.0,6.346451495819067e+16,2.6526598832036064e+17
8677.216524793868,1.890834912916616e+16,3.8103721429439546e+17,3117602188697.142,135060050646877.61,376868230820296.5,5413089602428695.0,6.425852401238545e+16,2.919422056667595e+17
9545.938177273256,1.892511428346488e+16,4.110356491663587e+17,3120366421475.842,135380576236432.66,377770141064327.3,5467703979775210.0,6.489964244758624e+16,3.2122691737181005e+17
10501.531995000581,1.89392211708922e+16,4.4374173607554605e+17,3122692360141.994,135611686788589.34,378420374121100.56,5510747501962458.0,6.540433138066992e+16,3.533702812687525e+17
11552.68519450064,1.895097606128586e+16,4.7945111436120954e+17,3124630502359.4727,135776943175377.1,378885141980625.1,5543789572625301.0,6.579127887631049e+16,3.8864728313532954e+17
12708.953713950705,1.8960729273798784e+16,5.184875408109859e+17,3126238608627.7944,135895216225472.98,379217537037506.3,5568481893872160.0,6.608008857249215e+16,4.273600020789506e+17
13980.849085345777,1.8968851431658132e+16,5.612038038738057e+17,3127577787175.154,135981045961077.47,379458504877372.44,5586452724218818.0,6.629003167866589e+16,4.698399009106375e+17
15379.933993880357,1.8975711001332796e+16,6.079828709945594e+17,3128708790624.0825,136045254467404.31,379638540451613.94,5599217037230818.0,6.643899291059682e+16,5.1645013754168864e+17
16918.927393268394,1.8981655424429096e+16,6.592393867952325e+17,3129688905025.1885,136095663565391.52,379779690219154.0,5608110683318177.0,6.65427043919658e+16,5.675879112528281e+17
18611.820132595236,1.8986997434491016e+16,7.154215985689015e+17,3130569693775.8086,136137799220914.19,379897526723575.25,5614252429873784.0,6.661431098969332e+16,6.236868718192051e+17
20474.00214585476,1.8992007230693852e+16,7.770137332118511e+17,3131395707221.509,136175507850649.9,380002882165609.06,5618533238073215.0,6.666425709907984e+16,6.852196258582808e+17
22522.40236044024,1.8996910258821716e+16,8.445387965097741e+17,3132204116784.3022,136211451756419.3,380103245584880.94,5621628294400823.0,6.670043996123415e+16,7.527003710938574e+17
24775.642596484264,1.900188961276886e+16,9.185617210843217e+17,3133025110921.4507,136247482684870.3,380203818216820.25,5624024882339239.0,6.672854665478065e+16,8.266876756084193e+17
27254.206856132692,1.900709163822129e+16,9.996927594421373e+17,3133882819058.4663,136284910753873.28,380308273907761.7,5626058459443502.0,6.675248430556816e+16,9.077873979714225e+17
29980.627541745966,1.9012633225477144e+16,1.0885910048531153e+18,3134796514026.8223,136324692388643.25,380419290435982.94,5627950131764366.0,6.677482359468127e+16,9.966557191218525e+17
32979.69029592056,1.9018609466821508e+16,1.1859679220501722e+18,3135781874609.1743,136367559635662.39,380538914666896.8,5629840567729537.0,6.679719796202304e+16,1.0940022317974223e+18
36278.65932551262,1.902510071632951e+16,1.2925907758149128e+18,3136852149557.3657,136414108562666.58,380668811687092.56,5631817599719616.0,6.682062707304694e+16,1.2005930106534154e+18
39907.525258063884,1.9032178503204024e+16,1.4092858514437914e+18,3138019132581.307,136464859412995.06,380810433945265.5,5633936737156537.0,6.684575628389708e+16,1.3172535666070433e+18
43899.277783870275,1.903991011330362e+16,1.5369413611569288e+18,3139293917749.792,136520297176213.81,380965135077161.7,5636235204660830.0,6.687301994374677e+16,1.444871571169045e+18
48290.20556225731,1.9048361910493004e+16,1.6765099213427308e+18,3140687447113.6147,136580898507136.94,381134244951518.0,5638740834479483.0,6.6902744504502296e+16,1.5843992182623498e+18
53120.22611848305,1.905760160797375e+16,1.8290104661728868e+18,3142210885201.731,136647149136766.64,381319119723504.1,5641477299668460.0,6.693520902282184e+16,1.7368550697626778e+18
58433.24873033136,1.906769974031841e+16,1.99552943434627e+18,3143875861729.751,136719554930047.72,381521170701499.3,5644466983878341.0,6.69706782527519e+16,1.9033252047678272e+18
64277.57360336451,1.907873056404173e+16,2.1772210291134717e+18,3145694620085.8223,136798648322250.47,381741883665269.9,5647732450482475.0,6.700941955027725e+16,2.0849634603220618e+18
70706.33096370097,1.9090772562094868e+16,2.3753063088977823e+18,3147680100511.4014,136884992053105.69,381982828960263.9,5651297141818569.0,6.705171090442498e+16,2.2829905127883305e+18
77777.96406007107,1.9103908669697896e+16,2.5910708180799964e+18,3149845977336.5347,136979180786075.73,382245666016236.2,5655185678677385.0,6.709784436798038e+16,2.498691504670855e+18
85556.76046607818,1.9118226288802504e+16,2.8258604158376904e+18,3152206661364.3545,137081841212052.48,382532143636623.94,5659423952623661.0,6.714812710317903e+16,2.7334118723015706e+18
94113.436512686,1.9133817119556216e+16,3.0810749064795837e+18,3154777272083.0405,137193630840921.6,382844096626356.25,5664039120092081.0,6.720288128238281e+16,2.988550976452802e+18
103525.78016395462,1.9150776812613924e+16,3.3581590181632415e+18,3157573580339.004,137315235508558.0,383183438835035.9,5669059495369223.0,6.726244282321873e+16,3.2655530827841147e+18
113879.3581803501,1.9169204423830036e+16,3.658590221571705e+18,3160611918426.757,137447365466852.55,383552152246009.44,5674514400735498.0,6.732715960172045e+16,3.5658951830157937e+18
125268.29399838512,1.9189201644473692e+16,3.983862827332683e+18,3163909053167.0513,137590749864187.53,383952271573939.2,5680433938594053.0,6.739738874881795e+16,3.8910710960703027e+18
137796.12339822366,1.9210871768673016e+16,4.335467756594942e+18,3167482015659.445,137746129341788.94,384385863604641.06,5686848685814581.0,6.747349302398857e+16,4.2425712436415017e+18
151576.73573804603,1.9234318353910656e+16,4.714867348619186e+18,3171347880425.28,137914246429187.7,384855000393286.0,5693789297214951.0,6.755583611092094e+16,4.621857464262428e+18
166735.40931185064,1.9259643525492416e+16,5.123464560957976e+18,3175523485849.047,138095833386895.33,385361725338930.3,5701286003652297.0,6.7644776662832744e+16,5.030332221683789e+18
183409.95024303574,1.928694587291628e+16,5.562565942463622e+18,3180025087332.4585,138291597122912.83,385908011093493.3,5709367989309626.0,6.77406609145769e+16,5.469301588053514e+18
201751.94526733932,1.931631788548615e+16,6.033337830414984e+18,3184867934479.3374,138502200805527.12,386495708251598.94,5718062632590474.0,6.7843813676610184e+16,5.939931453443309e+18
221928.13979407327,1.9347842877270692e+16,6.536755356858026e+18,3190065764083.892,138728241814599.95,387126483822854.4,5727394595851076.0,6.795452753559769e+16,6.443196547057885e+18
244121.9537734806,1.9381591358922028e+16,7.073544064995541e+18,3195630201917.479,138970225726724.11,387801748636488.0,5737384751393427.0,6.8073050112447576e+16,6.979822071168206e+18
268535.1491508287,1.9417616827620436e+16,7.64411425561877e+18,3201570068576.1265,139228536128216.77,388522573103423.3,5748048935213841.0,6.819956927688678e+16,7.550218067899747e+18
295389.6640659116,1.9455950968528332e+16,8.248488628700396e+18,3207890588297.989,139503400208504.55,389289591203392.75,5759396526548386.0,6.833419629534563e+16,8.154407084027961e+18
324929.6304725028,1.9496598293906516e+16,8.886224377800647e+18,3214592505062.6772,139794850321432.89,390102893220383.1,5771428860957536.0,6.8476947004020984e+16,8.791946291305703e+18
357423.5935197531,1.953953029186553e+16,9.556331651655668e+18,3221671117839.476,140102682030543.36,390961908666501.94,5784137498254938.0,6.8627721259894984e+16,9.461845976343847e+18
393166.95287172846,1.9584679217784748e+16,1.0257191225125026e+19,3229115256918.688,140426409592212.36,391865282056081.06,5797502384661202.0,6.8786281136930584e+16,1.0162487241578748e+19
