t(s),Total solute volume 1,Total retention volume 1,Total 1 volume 1,Total 2 volume 1,Total 3 volume 1,Total 4 volume 1,Total 5 volume 1,Total 6 volume 1
1.0,2490588835008749.5,2493364850322479.5,2776015313740.5356,0.0,0.0,0.0,0.0,0.0
2.1,3827191945762402.0,3832414958096999.5,4265795695630.427,196333719.3064718,903137478.7708716,16631712226.053677,326235232760.74896,613250222777.0524
3.3100000000000005,4902729264060865.0,4910767361088977.0,5464591647923.986,528034883.95720613,2428966222.184299,44735789728.24076,877435607401.3531,1648376981948.4045
4.641000000000001,5863942241730177.0,5875328062955966.0,6535961476824.427,995182979.7519423,4577851912.7632265,84324344226.57587,1653843447669.8025,3106118922195.6953
6.105100000000002,6765549458406483.0,6780934009077361.0,7540894613732.118,1609413950.0917535,7403320036.343345,136389861746.4215,2674926750624.424,5023326710786.519
7.7156100000000025,7635035389074747.0,7655187344238081.0,8510025305935.3545,2388425062.6769376,10986778203.12325,202440414616.16284,3970262264485.9575,7455851975030.419
9.487171000000004,8488701468508001.0,8514518475250508.0,9461523163244.43,3354744616.2945013,15431856799.882093,284396197651.5715,5577507701359.854,10474793078834.697
11.435888100000005,9337348106225666.0,9369873750743740.0,10407426342429.502,4535575615.348711,20863689894.88166,384577197767.77234,7542160238295.298,14166081474046.379
13.579476910000007,1.0188738997987968e+16,1.0229183898308846e+16,11356388273337.28,5963059139.185693,27430126735.05695,505726648155.37805,9918015950620.047,18631376262888.758
15.937424601000009,1.1048821800830132e+16,1.1098588549256648e+16,12315038225433.568,7674766054.806346,35303993612.37009,651054128901.0756,12768013134327.855,23989664178145.957
18.53116706110001,1.1922390655297564e+16,1.19831027575994e+16,13288719756115.684,9714350385.560135,44686099326.54049,824292746516.9409,16165349203821.049,30379340145623.777
21.384283767210015,1.281346690814582e+16,1.2887002024230844e+16,14281915064657.447,12132338078.645214,55808863447.22808,1029768267426.5664,20194827970298.47,37960663581158.34
24.522712143931017,1.3725520355417394e+16,1.3814048191241334e+16,15298491589821.057,14987036548.39003,68940500095.4449,1272479090545.1565,24954413859855.42,46918523747073.914
27.97498335832412,1.4661587394655676e+16,1.4767612568223142e+16,16341833702211.328,18345548094.315678,84389679488.73732,1558185782204.0125,30556966839191.68,57465452016268.94
31.772481694156536,1.5624311864959776e+16,1.5750721974052902e+16,17414888224436.238,22284858907.992203,102510537130.68431,1893507968342.3909,37132114386805.38,69844803117517.266
35.949729863572195,1.6615920431944804e+16,1.6766039379486192e+16,18520136995044.793,26892957666.652714,123707819040.37358,2286024916459.1636,44828189162937.266,84333995690314.8
40.544702849929415,1.7638139843241558e+16,1.781578622240005e+16,19659504641448.305,32269916953.147488,148441855937.9776,2744374418406.3037,53814128273812.95,101247660051921.02
45.59917313492236,1.8692064649790924e+16,1.8901614662247016e+16,20834211142124.75,38528851178.33575,177232969318.10345,3278342960435.8135,64281198999831.805,120940497533166.39
51.1590904484146,1.9777988445624424e+16,2.0024442447411812e+16,22044583726641.875,45796650789.018105,210664848440.28244,3898939015889.596,76444393876138.38,143809623669503.88
57.27499949325607,2.0895216916666148e+16,2.1184268296614496e+16,23289848500122.38,54214387852.29484,249386415685.23923,4618440916685.18,90543330943602.05,170296158784412.88
64.00249944258168,2.2041884915235776e+16,2.2379989658956772e+16,24567926554853.324,63937294234.34718,294111725912.616,5450411289609.306,106842505606118.94,200885851250241.56
71.40274938683986,2.3214801003014856e+16,2.3609246026435396e+16,25875260698332.785,75134230020.66647,345617521031.2243,6409671439302.001,125630768082740.56,236108571449125.38
79.54302432552385,2.4409341021198228e+16,2.4868309208382436e+16,27206696827094.58,87986584563.23979,404738174791.6449,7512231153674.589,147219941668041.66,276536592776094.25
88.49732675807624,2.5619407788678544e+16,2.615203766415198e+16,28555439006907.766,102686583381.63019,472357904682.4519,8775172013243.188,171942548186918.84,322781671778257.6
98.34705943388387,2.6837468145227456e+16,2.745390626857348e+16,29913090761757.59,119435009950.41785,549400292514.9508,10216485308855.357,200148666102256.34,375491045870675.6
109.18176537727226,2.805467251028157e+16,2.8766117017551744e+16,31269788334740.78,138438392770.9968,636815345555.6315,11854869168095.354,232202014516991.94,435342581512065.5
121.09994191499949,2.9261056833862948e+16,3.00797910900464e+16,32614425783214.89,159905756988.58722,735564554819.8988,13709493634581.527,268475435954347.0,503039430499564.7
134.20993610649944,3.0445822568685372e+16,3.1385238669633424e+16,33934967036293.9,184045097933.53534,846604674459.6559,15799747405408.973,309346045413983.06,579304691319955.1
148.6309297171494,3.1597686765681948e+16,3.2672299667929376e+16,35218836111789.53,211059800656.02505,970871252917.4878,18144985682489.418,355190422241870.44,664876727157746.1
164.49402268886433,3.270529089146968e+16,3.393074526858691e+16,36453372784457.61,241145299418.25656,1109263267995.7625,20764304717594.48,406380336952553.9,760505954095169.9
181.94342495775078,3.3757652804993524e+16,3.5150726303502024e+16,37626336359261.85,274486332840.00247,1262630501913.6404,23676374206937.777,463279609870220.75,866954061237318.8
201.13776745352587,3.4744641226547524e+16,3.632324953446806e+16,38726434514425.25,311255186952.5843,1431765460563.3398,26899362311687.523,526242765667712.94,984996724779219.4
222.25154419887846,3.5657446331157056e+16,3.744065721238358e+16,39743847824485.44,351611309546.22534,1617401600359.6963,30450988040610.652,595616145281848.1,1115430887169717.5
245.47669861876633,3.648901479640788e+16,3.849707974267205e+16,40670714664104.31,395702605695.84265,1820219287990.6516,34348730374538.56,671742032875661.0,1259087546456202.8
271.024368480643,3.7234414186900104e+16,3.948882729949274e+16,41501537350364.29,443668573699.4847,2040860225430.3853,38610211694817.01,754966128725490.8,1416850706022837.5
299.1268053287073,3.7891091529141256e+16,4.041468535678096e+16,42233470349682.7,495645212963.71014,2279950025237.568,43253754661445.03,845648346363158.6,1589682661027330.5
330.03948586157804,3.845899557933759e+16,4.127608265105973e+16,42866456556857.86,551771348208.0095,2538127300318.9214,48299087958657.94,944176458236075.2,1778655170322091.8
364.0434344477359,3.8940542156617064e+16,4.2077108732186536e+16,43403188654931.46,612195704838.2495,2816076208644.285,53768150197590.98,1050981613725078.9,1984985351078417.0
401.44777789250946,3.934041652973614e+16,4.282437171883928e+16,43848888854989.016,677083792460.4205,3114558115247.0806,59685917098362.31,1166554289597070.0,2210074451644966.8
442.5925556817604,3.9665224584453096e+16,4.352670378166104e+16,44210920087030.55,746623469696.2411,3434437188366.2915,66081160020268.75,1291458904449689.2,2455547151992953.5
487.8518112499365,3.99230227256577e+16,4.4194739836863544e+16,44498262028725.6,821028030520.0763,3776694595044.7764,72987038779841.9,1426345228070909.8,2723288859700745.0
537.6369923749302,4.0122771960348056e+16,4.484041089529322e+16,44720902626238.63,900535804417.656,4142426661004.6187,80441441547502.12,1571954903449599.5,3015478724856467.0
592.4006916124232,4.027377123833387e+16,4.547640437882595e+16,44889206495783.125,985405596238.9038,4532823893939.476,88487009444388.5,1729121874642484.8,3334616820419163.5
652.6407607736655,4.038512666497876e+16,4.611564709680283e+16,45013323308181.984,1075907758506.1656,4949129916920.422,97170819539004.53,1898766207125942.5,3683545044175495.0
718.9048368510321,4.046530599146785e+16,4.677086147813945e+16,45102691223776.766,1172311202408.1028,5392581720444.088,106543740181287.75,2081881562749630.2,4065462599594042.5
791.7953205361354,4.052181308496353e+16,4.745423288181937e+16,45165674056924.805,1274867108607.3352,5864334734090.29,116659508132220.3,2279517277712927.0,4483938135111067.0
871.9748525897489,4.056099784042406e+16,4.817720787707597e+16,45209349403781.58,1383790401386.0054,6365377609733.676,127573599504941.7,2492756429273462.5,4942921490458595.0
960.1723378487239,4.058799715799168e+16,4.895042394045172e+16,45239442855776.52,1499240146344.264,6896442053038.895,139341971037184.19,2722691365816483.0,5446758320551144.0
1057.1895716335964,4.060678605706232e+16,4.978375389119662e+16,45260384971443.98,1621299928490.6936,7457912564486.302,152019734412348.16,2970397909664543.0,6000210592592984.0
1163.9085287969563,4.0620307535267864e+16,5.068643659501245e+16,45275456017343.07,1749959027334.3528,8049739846190.899,165659798966032.72,3236908913483963.5,6608485192403668.0
1281.299381676652,4.063064648287052e+16,5.16672604867269e+16,45286979813142.59,1885094928119.3948,8671360354493.6455,180311485341451.62,3523187217612048.5,7277271865807123.0
1410.4293198443174,4.063921609796973e+16,5.27347680226064e+16,45296531510105.93,2026457496354.793,9321623503216.762,196019083515108.25,3830097491982288.0,8012790736629576.0
1552.4722518287492,4.0646932750372104e+16,5.389745558190799e+16,45305132494447.0,2173655069554.7092,9998727685618.236,212820310285591.6,4158376091984578.0,8821848914016129.0
1708.7194770116243,4.065436451484083e+16,5.516395218943235e+16,45313415942561.49,2326142809566.731,10700166694611.7,230744617411714.16,4508597982795238.0,9711905348937762.0
1880.5914247127869,4.066184731252537e+16,5.654316939002362e+16,45321756272318.22,2483213884048.239,11422689156647.967,249811311882531.28,4881139987471027.0,1.0691143118831522e+16
2069.6505671840655,4.066956924643324e+16,5.804442199418725e+16,45330363143416.05,2643994342643.2236,12162274960797.373,270027471324234.53,5276140032935725.0,1.1768548611047156e+16
2277.615623902472,4.067762773983687e+16,5.967752445525721e+16,45339345143879.2,2807442842398.195,12914133993892.424,291385666272375.44,5693452627023724.0,1.2953997500144056e+16
2506.3771862927197,4.068606572039847e+16,6.14528703680919e+16,45348750120899.11,2972356580965.827,13672733431033.87,313861533423254.94,6132601430472446.0,1.4258347843664836e+16
2758.0149049219917,4.069489301436996e+16,6.338150354686906e+16,45358589026820.38,3137384851919.444,14431860087343.152,337411277774766.94,6592730446558388.0,1.5693540974199886e+16
3034.816395414191,4.070409809725698e+16,6.547518906948653e+16,45368849016435.625,3301051497380.1323,15184723696927.988,361969215760887.6,7072556018236919.0,1.7272711114021028e+16
3339.2980349556105,4.0713654023474504e+16,6.7746492206385944e+16,45379500056182.6,3461787167975.385,15924105305246.36,387445505640966.25,7570322489575483.0,1.901030479516564e+16
3674.227838451172,4.072352112747192e+16,7.020887270125869e+16,45390497934819.914,3617971693160.7163,16642552168984.637,413724244796298.94,8083765040531686.0,2.092221126666176e+16
4042.6506222962894,4.0733648132036616e+16,7.287680162046974e+16,45401785498742.32,3767986020129.6274,17332616671541.295,440662144432643.7,8610083806768636.0,2.3025905149041436e+16
4447.915684525919,4.074397264258703e+16,7.576590792646253e+16,45413293202920.19,3910272129653.0986,17987131932808.082,468088017197621.4,9145933884792268.0,2.5340602684620332e+16
4893.707252978511,4.075442159707312e+16,7.889316192461829e+16,45424939612359.02,4043398154902.6064,18599511353473.055,495803327475143.5,9687436101037868.0,2.788743304991134e+16
5384.077978276362,4.076491200385464e+16,8.227710258808683e+16,45436632224538.414,4166124736023.3584,19164053844956.16,523584051278194.2,1.0230213367816556e+16,3.068962635433202e+16
5923.485776103998,4.0775352165759224e+16,8.593811526896192e+16,45448268833748.27,4277467609973.172,19676231743088.176,551184065528814.44,1.0769456918684036e+16,3.3772720150802944e+16
6516.834353714399,4.078564350653815e+16,8.989876526006811e+16,45459739566857.13,4376750770414.643,20132935345782.938,578340227967496.8,1.1300025571733488e+16,3.716478652814586e+16
7169.5177890858395,4.079568305337581e+16,9.418419092701954e+16,45470929650318.22,4463644453392.384,20532647651115.777,604779213293476.5,1.1816579300651426e+16,4.089668213794424e+16
7887.469567994424,4.080536656754469e+16,9.882255760911262e+16,45481722899599.43,4538182891626.278,20875526032640.496,630226035958668.6,1.2313745752451324e+16,4.500232382133414e+16
8677.216524793868,4.081459224651885e+16,1.0384557022858226e+17,45492005845559.484,4600758321051.444,21163374676196.06,654414018203695.4,1.2786314993980322e+16,4.9518992831036744e+16
9545.938177273256,4.082326484408791e+16,1.092890387428745e+17,45501672326730.48,4652090057444.404,21399502339577.223,677095763709061.6,1.32294538973383e+16,5.448767097301543e+16
10501.531995000581,4.0831299975225416e+16,1.151934865994732e+17,45510628287524.42,4693170345084.709,21588473263188.79,698054491798816.8,1.3638927561569424e+16,5.995341229898369e+16
11552.68519450064,4.083862829928053e+16,1.2160478877244918e+17,45518796440821.664,4725191690803.799,21735772912224.953,717114902711790.6,1.4011311565879562e+16,6.596575424353358e+16
12708.953713950705,4.084519922156204e+16,1.2857482349332896e+17,45526120393757.72,4749462991842.465,21847422168371.215,734152616423085.0,1.4344176349215286e+16,7.257917230057467e+16
13980.849085345777,4.085098373406666e+16,1.361621212192948e+17,45532567813999.695,4767323392232.806,21929581070269.1,749101193713370.9,1.4636224351730366e+16,7.985358246750821e+16
15379.933993880357,4.085597604405905e+16,1.444324964080925e+17,45538132244963.336,4780063044170.921,21988184314439.926,761955841490644.4,1.488736237700669e+16,8.785489576593242e+16
16918.927393268394,4.0860193722405576e+16,1.534596527138008e+17,45542833271144.6,4788858666364.44,22028644820169.984,772773143097773.5,1.5098696297874424e+16,9.665562921366531e+16
18611.820132595236,4.086367624107713e+16,1.633257602278617e+17,45546714888021.09,4794729191090.759,22055649701069.062,781666532727693.6,1.5272442620718308e+16,1.0633557773955806e+17
20474.00214585476,4.086648194857507e+16,1.741220136906132e+17,45549842130858.6,4798513415907.679,22073057457546.508,788797714594517.5,1.541176082984729e+16,1.1698255178459195e+17
22522.40236044024,4.086868372861482e+16,1.8594919186857622e+17,45552296235879.58,4800868162388.875,22083889502009.484,794364744500507.2,1.5520520532898298e+16,1.2869318580866214e+17
24775.642596484264,4.087036376758285e+16,1.989182487169346e+17,45554168808067.6,4802282720856.093,22090396600731.207,798587953557676.0,1.5603026455630576e+16,1.4157382369203378e+17
27254.206856132692,4.08716079836768e+16,2.1315097456173155e+17,45555555611884.2,4803103833483.956,22094173793665.617,801695205820213.5,1.5663730429153468e+16,1.5574148810984192e+17
29980.627541745966,4.087250071520868e+16,2.2878076871426205e+17,45556550650850.34,4803565287721.723,22096296523148.895,803908067331175.9,1.5706961187384954e+16,1.7132494233187565e+17
32979.69029592056,4.087312021263029e+16,2.4595356287536848e+17,45557241142954.47,4803817140853.736,22097455066996.695,805430290428771.1,1.5736699399630018e+16,1.884658544593285e+17
36278.65932551262,4.087353533530297e+16,2.648289277765444e+17,45557703838871.73,4803951207264.9795,22098071780783.33,806439609172254.8,1.5756417392494014e+16,2.0732007571274778e+17
39907.525258063884,4.087380364869906e+16,2.8558138531523696e+17,45558002901103.305,4804021179279.932,22098393654879.25,807083282104627.5,1.5768992081948184e+16,2.2805904588475018e+17
43899.277783870275,4.087397089482778e+16,3.084019374012595e+17,45558189313713.5,4804057194963.107,22098559327505.605,807477228380191.4,1.577668810631869e+16,2.508713403658962e+17
48290.20556225731,4.087407161592904e+16,3.3349981346399955e+17,45558301577498.16,4804075593183.632,22098643959000.855,807708108890213.9,1.5781198492517684e+16,2.75964374225533e+17
53120.22611848305,4.087413058663893e+16,3.611044331394056e+17,45558367306277.94,4804084997756.342,22098675840581.934,807837400637163.4,1.5783724261177546e+16,3.035662797628079e+17
58433.24873033136,4.087416466833732e+16,3.91467580097989e+17,45558405293754.05,4804089003488.8,22098694266312.777,807906438168044.2,1.5785072922460482e+16,3.3392797488045946e+17
64277.57360336451,4.087418474204069e+16,4.248657866378102e+17,45558427667912.93,4804091362816.213,22098705118842.836,807941525243976.1,1.578575834203e+16,3.673254408043463e+17
70706.33096370097,4.0874197460020536e+16,4.616029358284501e+17,45558441843378.94,4804092857601.604,22098711994617.37,807958479900015.8,1.5786089535961606e+16,4.0406222910587104e+17
77777.96406007107,4.087420667598134e+16,5.020130959804218e+17,45558452115493.0,4804093940783.336,22098716977080.695,807966276456885.6,1.5786241822332656e+16,4.44472219942617e+17
85556.76046607818,4.087421450981445e+16,5.464636101011286e+17,45558460847086.85,4804094861519.139,22098721212318.605,807969710354975.4,1.5786308881777308e+16,4.889226557222613e+17
94113.436512686,4.087422207678542e+16,5.953584694228275e+17,45558469281236.2,4804095750889.752,22098725303281.715,807971190962233.5,1.578633778166965e+16,5.3781747708307475e+17
103525.78016395462,4.087423003586295e+16,6.491419957047914e+17,45558478152427.49,4804096686345.927,22098729606230.965,807971348131977.0,1.5786340825182732e+16,5.916009921911676e+17
113879.3581803501,4.0874238465371704e+16,7.083029203095085e+17,45558487547961.7,4804097677093.411,22098734163511.5,807971514591434.9,1.5786344048585984e+16,6.5076190496157e+17
125268.29399838512,4.087424769402722e+16,7.733787871958403e+17,45558497834225.31,4804098761767.199,22098739152838.04,807971696831827.1,1.5786347577578926e+16,7.158377588916527e+17
137796.12339822366,4.087425783948389e+16,8.449608497396591e+17,45558509142355.91,4804099954195.595,22098744637818.586,807971897176504.5,1.5786351457152172e+16,7.874198071921106e+17
151576.73573804603,4.087426899846908e+16,9.236994355221921e+17,45558521580165.85,4804101265747.304,22098750670747.37,807972117535563.4,1.5786355724293762e+16,8.661583773083766e+17
166735.40931185064,4.08742812729679e+16,1.0103098434951284e+18,45558535261327.67,4804102708408.917,22098757306760.87,807972359922924.9,1.578636041800227e+16,9.527687680489596e+17
183409.95024303574,4.087429477456317e+16,1.1055788283006463e+18,45558550310211.7,4804104295295.149,22098764606184.574,807972626542044.8,1.5786365580946432e+16,1.0480377338993834e+18
201751.94526733932,4.0874309625904936e+16,1.2103717302729454e+18,45558566863524.03,4804106040821.492,22098772635327.516,807972919814920.5,1.5786371260027092e+16,1.1528306150216595e+18
221928.13979407327,4.087432596188333e+16,1.325640315163638e+18,45558585071612.94,4804107960841.98,22098781467115.742,807973242405259.1,1.5786377506825462e+16,1.2680991769780234e+18
244121.9537734806,4.087434393085784e+16,1.4524313938834557e+18,45558605099839.87,4804110072793.777,22098791181757.35,807973597242748.0,1.5786384378073496e+16,1.3948902304709245e+18
268535.1491508287,4.087436369600165e+16,1.5918962994329674e+18,45558627130078.08,4804112395855.177,22098801867469.52,807973987549606.1,1.5786391936167832e+16,1.5343551082718556e+18
295389.6640659116,4.087438543677877e+16,1.7453013057374646e+18,45558651362357.94,4804114951119.165,22098813621276.566,807974416869752.4,1.578640024973456e+16,1.6877600840541486e+18
324929.6304725028,4.087440935056758e+16,1.914039081362077e+18,45558678016677.74,4804117761784.274,22098826549888.09,807974889100861.8,1.5786409394250238e+16,1.8564978261058296e+18
357423.5935197531,4.087443565444561e+16,2.0996412801263176e+18,45558707334992.086,4804120853364.303,22098840770663.37,807975408529611.0,1.578641945272413e+16,2.042099987941657e+18
393166.95287172846,4.087446458715088e+16,2.3037923805311396e+18,45558739583398.25,4804124253918.915,22098856412672.57,807975979870419.1,1.5786430516448478e+16,2.2462510477274214e+18
432484.6481589014,4.08744964112385e+16,2.528344896730652e+18,45558775054540.67,4804127994307.068,22098873617861.89,807976608308021.8,1.5786442685823056e+16,2.470803519248617e+18
