t(s),Total solute volume 1,Total retention volume 1,Total 1 volume 1,Total 2 volume 1,Total 3 volume 1,Total 4 volume 1,Total 5 volume 1,Total 6 volume 1
1.0,2157760910393501.0,2158863022669161.0,1102112275666.4915,0.0,0.0,0.0,0.0,0.0
2.1,3315365333365020.0,3318568015901719.0,1693377972058.8384,696057688.5283729,2607510991.2582173,35306090983.74732,566414199506.4357,904280705467.9724
3.3100000000000005,4246519269125544.0,4252747432555561.5,2168980319129.1404,1871657956.7140102,7011442499.546174,94950030907.04826,1523262224159.5442,2432087755358.4565
4.641000000000001,5078357131371154.0,5088601458541159.0,2593855331904.951,3526725186.2124195,13211511376.586107,178941576290.70755,2870701829552.672,4584090195682.658
6.105100000000002,5858262930625563.0,5873628021068904.0,2992205180920.657,5702059775.528023,21360560661.93727,289367457477.3096,4642210406131.727,7414244778384.736
7.7156100000000025,6610013621036682.0,6631752595001206.0,3376174340490.4946,8459808859.176215,31691400695.664734,429402596078.8275,6888721959667.515,11004523858732.709
9.487171000000004,7347687353202720.0,7377234134224770.0,3752953459898.902,11879054406.419357,44500281657.46727,603088203540.1162,9675067477006.734,15459292545524.617
11.435888100000005,8080584952572747.0,8119587885312161.0,4127293090224.68,16055194900.01378,60144577275.48225,815302703958.0305,13079508214338.377,20904628958731.14
13.579476910000007,8815360136953072.0,8865718716892810.0,4502591728283.332,21100788880.854515,79045944837.79599,1071807391486.1628,17194467283744.77,27489566802509.42
15.937424601000009,9557066358364266.0,9620972210691770.0,4881430508448.251,27147159444.654575,101696335797.23872,1379331448203.935,22127891716910.848,35388355158690.12
18.53116706110001,1.030971034809422e+16,1.0389693301150594e+16,5265855934929.634,34346481447.698444,128665814632.88562,1745682415177.9187,28005021557649.195,44803380852532.06
21.384283767210015,1.107654759324331e+16,1.1175527474102688e+16,5657530801282.455,42874188602.20054,160611576024.9956,2179874103472.207,34970437232972.055,55968552957009.68
24.522712143931017,1.1860222974601072e+16,1.1981567496595082e+16,6057806023511.561,52931547117.97495,198287585905.36984,2692264456131.6943,43190265105676.66,69152967275642.51
27.97498335832412,1.2662806433514626e+16,1.281039519558545e+16,6467738857518.778,64748209293.18126,242554147378.9963,3294694227565.8604,52854394990265.03,84664631638787.0
31.772481694156536,1.3485752578453862e+16,1.3664046743825438e+16,6888072267518.63,78584515370.94145,294386523621.3459,4000615095726.7603,64178527514157.26,102853979455182.98
35.949729863572195,1.4329806862455668e+16,1.4543923556124732e+16,7319187004671.886,94733276706.20302,354881617724.5935,4825194059666.61,77405841054754.31,124116856655546.19
40.544702849929415,1.5194880902094126e+16,1.5450670818733452e+16,7761037924263.185,113520763103.05902,425261671316.35596,5785380474127.666,92808059995006.33,148896655811492.22
45.59917313492236,1.607992081067904e+16,1.638404702607562e+16,8213086734792.738,135306639301.27591,506874026632.94806,6899923200579.76,110685724128685.08,177685300666576.12
51.1590904484146,1.6982792291430098e+16,1.7342807887068196e+16,8674243307508.093,160482648572.51736,601186195204.1112,8189328039711.17,131367502108128.55,211022853338987.6
57.27499949325607,1.7900203554525278e+16,1.8324625444962536e+16,9142826305103.725,189469917441.9457,709775761216.7617,9675749461223.963,155208453584769.16,249495615407460.6
64.00249944258168,1.8827682108698436e+16,1.9326058433032732e+16,9616551327731.605,222714845067.14276,834314982962.5657,11382815178064.512,182587217364529.8,293732710635968.44
71.40274938683986,1.9759615198489736e+16,2.0342583814409976e+16,10092551567071.158,260683637069.47925,976550316385.1848,13335386987390.992,213902181056090.62,344401262356290.25
79.54302432552385,2.0689357399308976e+16,2.1368693413089496e+16,10567432762348.0,303855645541.0747,1138277466573.076,15559266472548.303,249566770524376.2,402200410909085.3
88.49732675807624,2.1609403614049496e+16,2.239805451392387e+16,11037361561257.94,352715788475.93353,1321312990823.407,18080859843539.137,290004088361270.9,467854561329031.9
98.34705943388387,2.251162178947018e+16,2.342372965692284e+16,11498184383727.256,407746447936.1743,1527463949135.3555,20926822663677.48,335641233937512.06,542106416070694.1
109.18176537727226,2.33875368189477e+16,2.4438448308784068e+16,11945572429930.635,469419386731.15894,1758497624180.6384,24123712496907.836,386903753879547.7,625710534019057.2
121.09994191499949,2.4228654674392944e+16,2.5434920996093956e+16,12375187235989.99,538188367177.39087,2016113871436.1746,27697685096165.297,444210792773756.25,719428354356535.8
134.20993610649944,2.5026813158823052e+16,2.6406184124964824e+16,12782859826582.688,614483277392.8771,2301923116745.8013,31674276403304.52,507971619840543.56,824025803677221.6
148.6309297171494,2.5774542470034944e+16,2.7345960691329452e+16,13164774878702.936,698706632501.8296,2617433250535.1616,36078316446883.41,578584267946569.2,940274722139318.4
164.49402268886433,2.6465415222068276e+16,2.8249018519008076e+16,13517649500793.1,791233275596.3079,2964048508584.2983,40934019950644.766,656437000650324.5,1068959345053874.6
181.94342495775078,2.7094362416859004e+16,2.911150419440252e+16,13838894620358.664,892413916074.5052,3343082727903.383,46265290015292.42,741913187681415.0,1210888908582470.8
201.13776745352587,2.765793016412089e+16,2.993122851313293e+16,14126746107761.48,1002582788022.2975,3755788036591.6646,52096254332748.266,835399898953428.5,1366917078793481.2
222.25154419887846,2.8154452819858348e+16,3.0707879125504544e+16,14380353209460.72,1122069195363.0305,4203398103826.783,58452028202783.586,937300124552950.6,1537968332381765.5
245.47669861876633,2.858412246307199e+16,3.1443139055705892e+16,14599814034298.139,1251212078953.3364,4687182710332.225,65359667220017.89,1048048026206371.8,1725070690383941.2
271.024368480643,2.8948942482116876e+16,3.214069626506173e+16,14786151846909.06,1390376079396.5618,5208507922013.409,72849238983626.45,1168126089932552.2,1929393418180354.0
299.1268053287073,2.9252563958767228e+16,3.280613912917441e+16,14941231498163.844,1539966995652.6226,5768894000362.989,80954913295800.73,1298082571678210.8,2152287592938973.8
330.03948586157804,2.9500016193613356e+16,3.344674454314204e+16,15067621786584.434,1700444182699.3645,6370061846536.297,89715950480052.17,1438547310357973.2,2395326960874827.5
364.0434344477359,2.969735516195225e+16,3.407117764769976e+16,15168415901435.807,1872327402180.6887,7013958666133.604,99177463293302.19,1590243915912105.5,2660346404572298.5
401.44777789250946,2.985126370470416e+16,3.468913280233373e+16,15247027213706.11,2056195996570.6387,7702754877507.039,109390842566394.05,1753996574111100.5,2949475702864246.0
442.5925556817604,2.9968642841567292e+16,3.531095239831786e+16,15306980532632.373,2252678978983.1167,8438806989526.014,120413769429647.9,1930730232961674.0,3265167087858121.0
487.8518112499365,3.005623347338e+16,3.5947261930976304e+16,15351718884014.121,2462435608083.7686,9224584835821.107,132309782552985.14,2121463664514203.2,3610216271201215.0
537.6369923749302,3.012030177022747e+16,3.660865592454731e+16,15384442817062.115,2686127069935.668,10062565494757.594,145147418310233.16,2327295687625460.0,3987777913002378.5
592.4006916124232,3.0166410820764236e+16,3.730546048010968e+16,15407993770571.383,2924380806813.443,10955099664012.885,158998984522269.9,2549385521472442.0,4401377679109465.0
652.6407607736655,3.0199287774979028e+16,3.804758611939129e+16,15424786213929.316,3177749637407.785,11904258522685.55,173939054973469.22,2788928664666953.5,4854923830397830.0
718.9048368510321,3.02227823819351e+16,3.884447160965605e+16,15436786469599.205,3446668007854.714,12911669844372.191,190042776730868.56,3047129772507283.5,5352721554160993.0
791.7953205361354,3.023990197124691e+16,3.970510802467106e+16,15445530580491.268,3731407517786.095,13978351393243.59,207384065609219.9,3325173738026878.0,5899492960296460.0
871.9748525897489,3.0252901236459084e+16,4.0638124325466904e+16,15452170168299.756,4032033407714.3325,15104547919851.6,226033732724183.5,3624195663944112.0,6500404940843619.0
960.1723378487239,3.0263403202942452e+16,4.165191216531072e+16,15457534219841.535,4348363167719.3887,16289576101626.887,246057546539549.2,3945249795737574.5,7161106146601913.0
1057.1895716335964,3.027252993347842e+16,4.275476828966993e+16,15462195847077.352,4679928031134.936,17531680288527.045,267514200553706.34,4289276937604155.0,7887773413866877.0
1163.9085287969563,3.0281026481243732e+16,4.395503679627519e+16,15466535598131.29,5025937994184.08,18827901454449.34,290453135117870.9,4657069526477627.0,8687167278389227.0
1281.299381676652,3.028936769210019e+16,4.526123917374112e+16,15470796008311.63,5385251205393.201,20173962515031.383,314912157241521.0,5049233465226738.0,9566695849443902.0
1410.4293198443174,3.0297843226152084e+16,4.668218599410274e+16,15475125026264.965,5756349053748.32,21564174989877.812,340914814823222.44,5466146017926181.0,1.0534486286131408e+16
1552.4722518287492,3.030662065456551e+16,4.822706930721778e+16,15479608241711.283,6137318936150.368,22991374428312.17,368467508642456.8,5907909501201498.0,1.159946334120219e+16
1708.7194770116243,3.0315789320986544e+16,4.9905538612245944e+16,15484291288382.314,6525847350298.697,24446894511273.668,397556362406937.94,6374301097996939.0,1.2771434797705598e+16
1880.5914247127869,3.032538894993554e+16,5.172776569603919e+16,15489194456227.78,6919226482373.835,25920591702442.9,428143914175359.6,6864719809727577.0,1.4061184009559654e+16
2069.6505671840655,3.0335427130927052e+16,5.370450489848235e+16,15494321621716.537,7314377700127.101,27400933225844.848,460165738709660.25,7378132303879679.0,1.5480570092418332e+16
2277.615623902472,3.0345889277580564e+16,5.584715589923538e+16,15499665334615.51,7707895205686.334,28875160562262.32,493527158036882.7,7913020179198347.0,1.7042636563317056e+16
2506.3771862927197,3.035674385988028e+16,5.81678363057886e+16,15505209490452.018,8096112458095.038,30329538243902.414,528100245483353.0,8467331939823773.0,1.876172940040878e+16
2758.0149049219917,3.0367944907539268e+16,6.06794714284069e+16,15510930609148.48,8475192780844.117,31749693251792.62,563721374984402.9,9038443715830398.0,2.0653625613411012e+16
3034.816395414191,3.0379433122488908e+16,6.339590877386412e+16,15516798403244.062,8841243801193.184,33121043696212.88,600189609529740.0,9623133441788018.0,2.273567351415692e+16
3339.2980349556105,3.039113645838923e+16,6.633206496213939e+16,15522776073889.646,9190453063032.986,34429306825992.125,637266255210598.2,1.021757372751579e+16,2.502694598506078e+16
3674.227838451172,3.0402970706323484e+16,6.9504112852874664e+16,15528820610000.572,9519239438045.586,35661066234459.266,674675923419216.6,1.0817348912759918e+16,2.7548408184089544e+16
4042.6506222962894,3.0414840426429496e+16,7.292971648344736e+16,15534883264102.824,9824412067992.85,36804367295932.94,712109434425925.8,1.1417501647575788e+16,3.032310131238818e+16
4447.915684525919,3.042664044095501e+16,7.662832076368282e+16,15540910314935.451,10103325864656.543,37849299727383.13,749228850918838.6,1.2012613623942104e+16,3.337634431195995e+16
4893.707252978511,3.0438258018900816e+16,8.062150154734448e+16,15546844183292.938,10354020542297.744,38788518482252.57,785674840602057.0,1.2596923648760092e+16,3.673595565587369e+16
5384.077978276362,3.0449575810594836e+16,8.493337955627205e+16,15552624930906.875,10575329286223.707,39617650916883.02,821076425470242.5,1.3164483979483974e+16,4.0432497735589064e+16
5923.485776103998,3.0460475516883572e+16,8.95910986055056e+16,15558192134545.773,10766943959675.13,40335541158608.445,855062979773566.1,1.3709352707028542e+16,4.449954672456725e+16
6516.834353714399,3.0470842195302096e+16,9.462536473767179e+16,15563487085461.951,10929426546093.941,40944293071246.664,887278094775772.6,1.4225816059713512e+16,4.897399118117754e+16
7169.5177890858395,3.0480569014927216e+16,1.0007103847327995e+17,15568455218010.586,11064161339350.2,41449091250668.8,917394652741501.6,1.4708630082345318e+16,5.3896363015457896e+16
7887.469567994424,3.0489562179183804e+16,1.0596776788283027e+17,15573048624053.834,11173248841468.32,41857803632963.42,945130174223818.2,1.515326668209558e+16,5.931120474622859e+16
8677.216524793868,3.0497745653448556e+16,1.1236064626024784e+17,15577228467661.947,11259349566196.72,42180396415837.06,970261262920957.9,1.5556145189239924e+16,6.526747718018864e+16
9545.938177273256,3.0505065277431252e+16,1.1930087565884291e+17,15580967085579.184,11325492769209.424,42428217554514.52,992635821132308.5,1.591482815771795e+16,7.181901172515218e+16
10501.531995000581,3.051149182778895e+16,1.2684641731969131e+17,15584249551504.52,11374870172963.822,42613224005917.805,1012181697544674.8,1.6228159951463598e+16,7.902501149916366e+16
11552.68519450064,3.05170226386632e+16,1.3506261282293323e+17,15587074503807.158,11410636843094.469,42747235726224.52,1028910599360041.2,1.6496329394889938e+16,8.695060524294694e+16
12708.953713950705,3.052168149444574e+16,1.4402276601346523e+17,15589454090755.305,11435739850140.088,42841293727413.23,1042916471162323.1,1.6720843706431118e+16,9.566745785375758e+16
13980.849085345777,3.0525516676700544e+16,1.538086852082508e+17,15591412972949.219,11452790354212.613,42905180786746.33,1054368096265209.1,1.6904409807256836e+16,1.052544412439142e+17
15379.933993880357,3.052859725865674e+16,1.645111969808924e+17,15592986430672.805,11463987267582.992,42947135374216.15,1063496352337911.9,1.7050729936753898e+16,1.1579836932407173e+17
16918.927393268394,3.053100796541285e+16,1.7623065533065466e+17,15594217738658.92,11471092303798.104,42973758095175.82,1070577250735987.0,1.7164229690307666e+16,1.2739480135606011e+17
18611.820132595236,3.0532843116061936e+16,1.8907748117710253e+17,15595155071930.188,11475448830592.51,42990082252283.7,1075912480953465.1,1.7249746083597154e+16,1.4014891881033493e+17
20474.00214585476,3.0534200294360604e+16,2.0317277471040595e+17,15595848272989.75,11478031994763.088,42999761585089.57,1079809541496995.5,1.7312209013771556e+16,1.541764822189239e+17
22522.40236044024,3.053517442575099e+16,2.1864904549194934e+17,15596345826562.871,11479515814581.045,43005321599345.22,1082563574098935.8,1.735635005454154e+16,1.6960487625431744e+17
24775.642596484264,3.0535852858249156e+16,2.3565110168275667e+17,15596692347080.459,11480344166523.99,43008425505922.31,1084442702231702.1,1.7386467452577918e+16,1.865742532076782e+17
27254.206856132692,3.05363118658444e+16,2.5433713106212986e+17,15596926792732.65,11480795912699.412,43010118222691.23,1085678061054095.0,1.7406266348500302e+16,2.0523878694580288e+17
29980.627541745966,3.053661475245838e+16,2.7487999456045235e+17,15597081497034.871,11481038561252.05,43011027424076.46,1086458921921254.2,1.741878067536959e+16,2.2576805106322074e+17
32979.69029592056,3.053681148418441e+16,2.9746874066761197e+17,15597181980988.29,11481168664388.254,43011514906421.94,1086932530705044.8,1.7426370621240684e+16,2.4834853616592982e+17
36278.65932551262,3.0536939570342536e+16,3.2231033915022925e+17,15597247403092.771,11481239900862.33,43011781812576.555,1087207660740336.9,1.743077963037602e+16,2.73185322019654e+17
39907.525258063884,3.0537025788644124e+16,3.4963162712152934e+17,15597291440503.416,11481281246094.926,43011936717091.0,1087360541191538.0,1.743322947025348e+16,3.005039208120361e+17
43899.277783870275,3.0537088320909508e+16,3.796814604473425e+17,15597323379882.854,11481308001119.854,43012036953765.8,1087441790886208.8,1.7434531402245348e+16,3.305523082649663e+17
48290.20556225731,3.0537138921614244e+16,4.127330681145396e+17,15597349225022.121,11481328130667.236,43012112366021.64,1087483214074240.9,1.7435195126373364e+16,3.636031600627559e+17
53120.22611848305,3.0537184851179616e+16,4.4908661486789574e+17,15597372684300.404,11481345399209.54,43012177058118.03,1087503690006100.4,1.7435523190731604e+16,3.999563122408367e+17
58433.24873033136,3.0537230431458892e+16,4.890719861187637e+17,15597395965175.057,11481362536427.707,43012241258242.8,1087513790595162.1,1.7435685006774358e+16,4.3994146589017446e+17
64277.57360336451,3.0537278191014424e+16,5.330518170791755e+17,15597420359150.812,11481380493007.492,43012308527892.25,1087519092958720.4,1.7435769941598962e+16,4.8392115874422317e+17
70706.33096370097,3.0537329642080852e+16,5.814247943922002e+17,15597446638626.252,11481399837517.129,43012380997059.47,1087522366724667.0,1.7435822373123956e+16,5.32294028782797e+17
77777.96406007107,3.053738576908094e+16,6.346292629119538e+17,15597475306411.396,11481420940078.549,43012460052309.914,1087524907819704.9,1.7435863064911854e+16,5.854983978138424e+17
85556.76046607818,3.0537447314273444e+16,6.931471732664758e+17,15597506741627.178,11481444079765.451,43012546739120.47,1087527290828295.6,1.7435901222474894e+16,6.440162059413376e+17
94113.436512686,3.0537514941054588e+16,7.575084071204028e+17,15597541283114.012,11481469506000.654,43012641991888.51,1087529698768482.1,1.7435939777852298e+16,7.083773310499466e+17
103525.78016395462,3.0537589283072224e+16,8.28295525029762e+17,15597579254517.936,11481497457022.334,43012746703111.64,1087532345813464.2,1.7435982161719654e+16,7.791643294157436e+17
113879.3581803501,3.0537671040258324e+16,9.061489678762703e+17,15597621013340.693,11481528195990.06,43012861858648.625,1087535256885235.8,1.7436028773122096e+16,8.57017640794936e+17
125268.29399838512,3.0537760956878056e+16,9.917727696249409e+17,15597666939727.895,11481562002731.768,43012988506801.734,1087538458484332.0,1.7436080036379826e+16,9.426412979557486e+17
137796.12339822366,3.0537859846649884e+16,1.0859408226646058e+18,15597717449299.613,11481599183188.334,43013127793698.76,1087541979584262.4,1.7436136415409894e+16,1.0368091919785356e+18
151576.73573804603,3.0537968603215836e+16,1.1895037495873167e+18,15597772998498.156,11481640073350.21,43013280978040.75,1087545852004326.1,1.743619841969522e+16,1.140371944018352e+18
166735.40931185064,3.0538088208639508e+16,1.303396438202557e+18,15597834088928.531,11481685042452.404,43013449443070.39,1087550110712179.9,1.7436266609129546e+16,1.2542644403055017e+18
183409.95024303574,3.0538219742192668e+16,1.4286463011785114e+18,15597901271846.594,11481734496278.297,43013634708949.26,1087554794136706.6,1.7436341599027e+16,1.3795140917726784e+18
201751.94526733932,3.0538364389892764e+16,1.566382326762858e+18,15597975153030.1,11481788880745.244,43013838446190.67,1087559944507609.5,1.7436424065559342e+16,1.517249884760419e+18
221928.13979407327,3.0538523454934156e+16,1.717844992421758e+18,15598056398106.977,11481848685826.746,43014062490352.63,1087565608226831.1,1.743651475170333e+16,1.668712294639321e+18
244121.9537734806,3.0538698369108724e+16,1.8843971189087137e+18,15598145738388.4,11481914449846.084,43014308858123.28,1087571836275187.6,1.7436614473751402e+16,1.8352641398605322e+18
268535.1491508287,3.053889070530551e+16,2.0675357482057037e+18,15598243977253.158,11481986764176.182,43014579764927.305,1087578684657452.8,1.7436724128438282e+16,2.018402459876801e+18
295389.6640659116,3.0539102191184932e+16,2.2689051349284183e+18,15598351997132.248,11482066278380.814,43014877644185.92,1087586214889236.5,1.7436844700736872e+16,2.2197715065256863e+18
324929.6304725028,3.053933472413026e+16,2.4903109471013125e+18,15598470767145.133,11482153705835.762,43015205168375.82,1087594494529345.9,1.7436977272382124e+16,2.4411769447806285e+18
357423.5935197531,3.053959038758396e+16,2.7337357786119916e+18,15598601351444.28,11482249829871.18,43015565272039.48,1087603597761471.6,1.7437123031184872e+16,2.6846013651790126e+18
393166.95287172846,3.0539871468885536e+16,3.001356082047129e+18,15598744918325.8,11482355510478.23,43015961176909.875,1087613606029322.9,1.7437283281201508e+16,2.9522212166294154e+18
432484.6481589014,3.05401804787335e+16,3.2955606368628654e+18,15598902750170.174,11482471691626.344,43016396419322.21,1087624608729596.8,1.743745945382949e+16,3.246425274550704e+18
