t(s),Total solute volume 1,Total retention volume 1,Total 1 volume 1,Total 2 volume 1,Total 3 volume 1,Total 4 volume 1,Total 5 volume 1,Total 6 volume 1
1.0,6154611055248327.0,8126122601203629.0,1971511545955295.2,0.0,0.0,0.0,0.0,0.0
2.1,9457931039354516.0,1.248805189968019e+16,3029457153015785.0,3138267021.9680777,46353960691.982445,173355036122.76868,367291764094.9284,73568281951.12149
3.3100000000000005,1.2117080067135978e+16,1.599997151216391e+16,3881098217944646.0,8441645278.759644,124069221454.88412,465795925037.9493,995472422392.6956,199447869093.06375
4.641000000000001,1.4494432233445318e+16,1.914032861684804e+16,4642497314882863.0,15914110390.411875,233238209035.2222,878510667708.6503,1892193356807.1614,379212175858.5528
6.105100000000002,1.6725219298009956e+16,2.2087714075626748e+16,5356961402445224.0,25744924215.051792,376651971676.7741,1423376251296.2153,3088476277816.523,619125746621.8998
7.7156100000000025,1.887742558227392e+16,2.493195686600892e+16,6046261885283719.0,38221167964.9634,558504952630.1503,2117407232001.4424,4627384903026.417,927880195585.4803
9.487171000000004,2.0991429935767596e+16,2.7726457915018788e+16,6723329893657969.0,53708468043.11909,784124428133.3022,2981782420560.827,6562230800443.768,1316239476049.5732
11.435888100000005,2.309404232701157e+16,3.050672185385808e+16,7396751303403731.0,72648943923.9862,1059944921402.0287,4041800051719.091,8956748947668.004,1797080578057.4468
13.579476910000007,2.520459468984003e+16,3.3298399806714944e+16,8072717233222915.0,95565973993.20494,1393579281904.5603,5327166161135.272,11885992714375.744,2385579520629.4507
15.937424601000009,2.733796337030262e+16,3.612128189921466e+16,8755991939280366.0,123072775377.67285,1793944149523.6577,6872464777124.5,15437628984611.615,3099478945148.2134
18.53116706110001,2.950622038626625e+16,3.899148001486712e+16,9450441610465614.0,155883815496.21124,2271426054615.2993,8717762521471.838,19713529080577.547,3959416663134.916
21.384283767210015,3.171960383214858e+16,4.192271213634158e+16,1.0159345130551164e+16,194828785210.50333,2838084437359.0654,10909334303259.93,24831618192058.43,4989307924060.243
24.522712143931017,3.3987122037685896e+16,4.492710361522216e+16,1.0885587555125642e+16,240869171894.10834,3507892225003.9575,13500511101771.834,30927970816317.645,6216779095719.466
27.97498335832412,3.631694790629039e+16,4.801571189764568e+16,1.1631786396012854e+16,295117634820.1785,4297016932944.073,16552658481176.39,38159149886766.29,7673652406559.75
31.772481694156536,3.871668677155596e+16,5.119888475440187e+16,1.2400377401124078e+16,358860493511.11804,5224146799132.302,20136299799419.703,46704792350163.43,9396482279746.479
35.949729863572195,4.119356474028427e+16,5.448651405824764e+16,1.319367487076434e+16,433583726723.2808,6310867708244.032,24332402779944.793,56770448494566.58,11427144489640.307
40.544702849929415,4.375456525588952e+16,5.788822177154933e+16,1.4013915391855878e+16,521002960814.18,7582097827135.687,29233852972328.91,68590689521649.81,13813480521865.625
45.59917313492236,4.640653090984785e+16,6.14135006938038e+16,1.4863290443032792e+16,623098008917.3875,9066588063017.973,34947142945761.543,82432510273171.52,16610001632225.004
51.1590904484146,4.915624130316196e+16,6.5071824326629256e+16,1.5743971329851538e+16,742152610911.9697,10797497730689.129,41594311778514.44,98599071406206.89,19878660089271.723
57.27499949325607,5.20104740130618e+16,6.8872735281226376e+16,1.6658128709506986e+16,880800121660.2705,12813056219388.363,49315175064835.0,117433831870464.47,23689695381258.473
64.00249944258168,5.4976053477195544e+16,7.282591858756512e+16,1.7607948246194112e+16,1042076005302.8953,15157323049130.154,58269890983134.3,139325033044052.97,28122541093809.99
71.40274938683986,5.805989162302151e+16,7.694126430593214e+16,1.859564362319532e+16,1229478127572.3093,17881060712896.168,68641917525957.695,164709954111706.53,33266649237084.977
79.54302432552385,6.126902525221483e+16,8.122892255995402e+16,1.9623468517303096e+16,1447036038666.383,21042737966336.895,80641459440018.48,194076028199789.4,39221528791096.97
88.49732675807624,6.461066273431532e+16,8.569935325427131e+16,2.0693731560909324e+16,1699390875281.9238,24709689162926.527,94509694463239.84,227947042894529.25,46093141650586.33
98.34705943388387,6.8092280838429224e+16,9.03633721582023e+16,2.1808827384643484e+16,1991888819742.1606,28959480712678.99,110524623715744.34,266811629278401.0,53976312603038.53
109.18176537727226,7.172189585182794e+16,9.523219463457605e+16,2.297132355300372e+16,2330695157713.8643,33881617315843.375,129008984591887.16,310861636402781.94,62892296276170.586
121.09994191499949,7.550872467235429e+16,1.0031747800674918e+17,2.4184172556986624e+16,2722943605866.221,39579870505199.83,150321158711435.78,359318424990335.9,72638379595695.03
134.20993610649944,7.946374311737174e+16,1.0563136332823853e+17,2.545089081921653e+16,3176915912007.8706,46175095039142.58,174710337621209.56,409948518573063.5,82718524504625.08
148.6309297171494,8.359805367987107e+16,1.1118651705177197e+17,2.677503514357199e+16,3702163261393.1235,53806675216350.7,201976663155687.03,461102288378625.2,92840438317041.55
164.49402268886433,8.792097995518643e+16,1.1699617258459795e+17,2.81595914471673e+16,4309600038494.1724,62633162386178.03,231554942880960.62,513810490175641.5,103292986762991.34
181.94342495775078,9.244127993570328e+16,1.2307417060055976e+17,2.960736361871853e+16,5011734718817.73,72835369076747.9,263084015495439.72,570087406977946.6,114508519868817.69
201.13776745352587,9.71684691673926e+16,1.2943499475960694e+17,3.1121397478662924e+16,5822964230152.465,84620269088420.86,296618728917442.1,631312610981880.8,126753540333811.39
222.25154419887846,1.0211283320863446e+17,1.360937956471568e+17,3.270498424999903e+16,6759856363805.218,98223995328475.17,332471533447434.6,698335707338798.5,140187096044915.06
245.47669861876633,1.0728518937877246e+17,1.4306638990795835e+17,3.4361583477428736e+16,7841454254073.117,113914450562621.0,371056366322145.44,771859736743796.1,154945043874660.72
271.024368480643,1.1269676986188245e+17,1.5036921365372643e+17,3.609478474367267e+16,9089625187575.479,131993819984084.62,412820218581622.3,852588197927756.4,171167186490108.06
299.1268053287073,1.1835910573343592e+17,1.5801919982384342e+17,3.7908269627201304e+16,10529452147517.977,152800845660074.78,458223470247864.9,941266729533121.0,189003965617728.12
330.03948586157804,1.2428383035355749e+17,1.660335397780838e+17,3.980574785170182e+16,12189664058277.357,176712772416462.12,507739551337115.25,1038700325256338.8,208619259756537.6
364.0434344477359,1.3048236009902365e+17,1.7442928260396224e+17,4.179085428350838e+16,14103098686531.88,204146963752322.62,561861023749100.44,1145764686534661.5,230192448707580.62
401.44777789250946,1.3696541662651949e+17,1.8322272480383654e+17,4.386699544028707e+16,16307187194026.695,235562229232905.7,621107195765910.6,1263415797479125.2,253920327358180.28
442.5925556817604,1.4374236114821782e+17,1.924285514359044e+17,4.6037136180965656e+16,18844442757122.203,271459908827890.94,686031672256733.2,1392699035813630.0,280019047065379.0
487.8518112499365,1.5082032574241405e+17,2.0205870930744154e+17,4.830352187760664e+16,21762928294845.156,312384725124982.75,757229476737486.2,1534758389877125.8,308726167386804.4
537.6369923749302,1.5820314951747133e+17,2.1212102290212528e+17,5.0667338629530984e+16,25116670971638.785,358925348839417.7,835343794559598.1,1690846073536548.0,340302867215657.9
592.4006916124232,1.6589015575432e+17,2.2261760093582502e+17,5.312832309779495e+16,28965984680792.707,411714545683252.56,921072494656748.5,1862332707901238.2,375036350788197.75
652.6407607736655,1.7387483549191885e+17,2.33543119993529e+17,5.5684342887877864e+16,33377657081222.19,471428708519159.56,1015174591344414.2,2050718178132233.2,413242478655324.7
718.9048368510321,1.8214352824024787e+17,2.4488310486719462e+17,5.833097644676638e+16,38424955697516.75,538786549955590.1,1118476782083725.5,2257643240312471.0,455268652131144.9
791.7953205361354,1.906742071568769e+17,2.5661234713858525e+17,6.106112674490352e+16,44187408587121.85,614546748558519.2,1231880167355284.0,2484901932200468.0,501496980103680.56
871.9748525897489,1.9943548158698602e+17,2.6869361090123226e+17,6.386470477494087e+16,50750319393912.87,699504403762315.8,1356367232016293.2,2734454825546963.0,552347758586197.3
960.1723378487239,2.0838592437150154e+17,2.810767673060161e+17,6.672841712198012e+16,58203984449972.68,794486245218252.5,1493009144540379.2,3008443142712999.5,608283295613239.2
1057.1895716335964,2.1747381709670298e+17,2.936984808829006e+17,6.963568728232741e+16,66642591325674.85,900344641049213.9,1642973410324480.8,3309203744311376.5,669812116859560.1
1163.9085287969563,2.2663738703871734e+17,3.0648254499739424e+17,7.256673416267291e+16,76162794549174.38,1017950538427331.5,1807531896511932.0,3639284975914852.5,737493590600344.5
1281.299381676652,2.358055882022647e+17,3.193409356326414e+17,7.549882432296486e+16,86861986066624.72,1148185540363224.5,1988069227442089.5,4001463339232136.0,811943014307492.0
1410.4293198443174,2.4489945713272682e+17,3.321756240247752e+17,7.840670754349568e+16,98836306219441.42,1291933376718622.2,2186091530999699.2,4398760925325764.0,893837209289133.5
1552.4722518287492,2.5383405127544298e+17,3.448811584591538e+17,8.126323795002736e+16,112178475576622.1,1450071074634922.8,2403235495948248.5,4834463513177890.0,983920674345262.1
1708.7194770116243,2.6252095069959123e+17,3.57347989994318e+17,8.404017431696686e+16,126975567173495.53,1623460183432406.8,2641277677852501.5,5312139194840399.0,1083012354461051.2
1880.5914247127869,2.7087126941697386e+17,3.694664713026164e+17,8.670914215503086e+16,143306878366452.44,1812938463741763.5,2902143965334527.5,5835657337039685.0,1192013086129502.2
2069.6505671840655,2.787990779244689e+17,3.811313990406489e+17,8.924272602057174e+16,161242094528680.9,2019312499333096.5,3187919087921484.0,6409207626791707.0,1311913787033149.0
2277.615623902472,2.8622508462832653e+17,3.922468989999367e+17,9.161564336259861e+16,180839953553385.66,2243351707113933.2,3500856010260039.5,7037318873511004.0,1443804464573158.2
2506.3771862927197,2.9308036528858e+17,4.0273137603253894e+17,9.38059326774666e+16,202147609672892.2,2485784167798510.0,3843385013529172.0,7724877150318496.0,1588884125173136.0
2758.0149049219917,2.993098756081033e+17,4.125221792648551e+17,9.579607164010075e+16,225200847432765.22,2747294532088813.0,4218122211948634.0,8477142750710499.0,1748471674470173.8
3034.816395414191,3.048754447527095e+17,4.2157958338150374e+17,9.757392908171043e+16,250025205696256.72,3028523933740550.5,4627877188794607.0,9299765311342700.0,1924017907509364.8
3339.2980349556105,3.09757940030658e+17,4.2988967601394176e+17,9.913345234225915e+16,276637938542191.97,3330071338363806.5,5075659360797177.0,1.0198796305360042e+16,2117118697960697.5
3674.227838451172,3.139583262734459e+17,4.3746578413789254e+17,1.004750021611963e+17,305050576448559.3,3652495087954106.5,5564682590949658.0,1.1180697941630776e+16,2329529506267157.5
4042.6506222962894,3.174974234336916e+17,4.443481765897778e+17,1.0160527272414688e+17,335271680648183.3,3996312633780783.5,6098367466895290.0,1.225234731200585e+16,2563181338608717.5
4447.915684525919,3.204142900366905e+17,4.50601942222537e+17,1.0253677396779331e+17,367309239903429.4,4361995720369001.0,6680340545404145.0,1.3421034410637246e+16,2820198301739596.0
4893.707252978511,3.2276331572419674e+17,4.563131473999354e+17,1.0328690274850064e+17,401172081313388.56,4749957791211382.0,7314429734581812.0,1.469445240688225e+16,3102916913249267.0
5384.077978276362,3.246102706532541e+17,4.615835930295406e+17,1.0387668184214176e+17,436869690334269.0,5160530365113312.0,8004654847514054.0,1.6080678288432976e+16,3413907342749871.0
5923.485776103998,3.26027703601303e+17,4.665246816950244e+17,1.0432929162881011e+17,474409979671155.5,5593925781196850.0,8755212218689526.0,1.758814170830043e+16,3755996777053495.0
6516.834353714399,3.270901740781252e+17,4.712510299347961e+17,1.046685491065206e+17,513794805833200.94,6050185113774321.0,9570452133439360.0,1.9225579575368348e+16,4132295121734970.0
7169.5177890858395,3.278698232716261e+17,4.7587448847956026e+17,1.0491749513853008e+17,555013368841032.56,6529112106447688.0,1.045484768685993e+16,2.1001973634507504e+16,4546223272747934.0
7887.469567994424,3.284327253321008e+17,4.804991521446461e+17,1.0509723069856552e+17,598033981540189.9,7030196344054210.0,1.1412953568425888e+16,2.2926468004802304e+16,5001544215157101.0
8677.216524793868,3.288363241829013e+17,4.852177635218101e+17,1.052260994511849e+17,642794985883906.0,7552531095687374.0,1.244935316865602e+16,2.5008263405730156e+16,5502397231765656.0
9545.938177273256,3.2912807956051437e+17,4.901096768040989e+17,1.0531925614492842e+17,689195761222349.9,8094732838922852.0,1.3568592334329306e+16,2.725648463150129e+16,6053335532681760.0
10501.531995000581,3.2934525849027846e+17,4.952403013553888e+17,1.0538860048758318e+17,737088783404242.1,8654870099173270.0,1.4775098073951396e+16,2.9680017773057224e+16,6659367647941371.0
11552.68519450064,3.295156545778474e+17,5.006617414152616e+17,1.0544300708238347e+17,786273566508637.4,9230408883905192.0,1.607308055885999e+16,3.2287313786274052e+16,7326002959482311.0
12708.953713950705,3.2965892619695123e+17,5.064142271027912e+17,1.0548875285241658e+17,836493103278276.8,9818180926471238.0,1.7466416910752514e+16,3.5086155326549376e+16,8059301786370935.0
13980.849085345777,3.2978822618874086e+17,5.1252790687628525e+17,1.0553003747101722e+17,887433186128976.1,1.041437960664032e+16,1.895851555590415e+16,3.808338438928797e+16,8865930478565848.0
15379.933993880357,3.299118405926982e+17,5.190246309258359e+17,1.0556950663700333e+17,938724798703666.8,1.1014587169313498e+16,2.055216040886264e+16,4.128458929921561e+16,9753222020039024.0
16918.927393268394,3.3003463841109696e+17,5.2591946757694656e+17,1.0560871499439622e+17,989949646500592.9,1.161383588331129e+16,2.2249334875670156e+16,4.4693751073803064e+16,1.0729242692168298e+16
18611.820132595236,3.301592298286518e+17,5.332218228967375e+17,1.056484959540323e+17,1040648831612976.2,1.2206704944863484e+16,2.4051026688980772e+16,4.831285124517834e+16,1.1802865403417896e+16
20474.00214585476,3.302868126144021e+17,5.409361453365643e+17,1.056892319489858e+17,1090334627228657.5,1.2787453892417112e+16,2.5957015949164508e+16,5.214144595243615e+16,1.2983850351930868e+16
22522.40236044024,3.304177420225876e+17,5.490622741203106e+17,1.057310364026096e+17,1138505218314804.8,1.3350191659104596e+16,2.796565047934819e+16,5.617621458402416e+16,1.4282933754321504e+16
24775.642596484264,3.3055188611223904e+17,5.575955289219652e+17,1.0577386718096851e+17,1184662104754087.8,1.388907786499404e+16,3.007361472132653e+16,6.041049549039889e+16,1.571192544728443e+16
27254.206856132692,3.306888319477663e+17,5.665266468917525e+17,1.0581759243198408e+17,1228329599595699.5,1.4398549510224618e+16,3.2275700885007132e+16,6.483382626787769e+16,1.728381624929648e+16
29980.627541745966,3.3082799797527584e+17,5.758416637163607e+17,1.0586202646684704e+17,1269075519044819.0,1.4873562139194462e+16,3.4564593851334524e+16,6.943151170625181e+16,1.901289605841188e+16
32979.69029592056,3.309686926690835e+17,5.855218197879703e+17,1.0590694848575566e+17,1306531802609848.2,1.5309830351274476e+16,3.693068428699015e+16,7.418424843250784e+16,2.0914883759749184e+16
36278.65932551262,3.311101451340426e+17,5.955435585691397e+17,1.0595211234927605e+17,1340413491526410.8,1.570404898999935e+16,3.936192734349061e+16,7.906784113718146e+16,2.3007070123623364e+16
39907.525258063884,3.312515224212062e+17,6.058786754071414e+17,1.0599725210731205e+17,1370534309386730.5,1.605407430784512e+16,4.184376686710124e+16,8.405305040092246e+16,2.530847499336863e+16
43899.277783870275,3.3139194127443034e+17,6.16494671517542e+17,1.0604208574985515e+17,1396817104091457.8,1.6359044697183402e+16,4.435914681225784e+16,8.910561568792658e+16,2.7840020191795604e+16
48290.20556225731,3.3153047812255814e+17,6.273553676901009e+17,1.0608631839748386e+17,1419297678247799.2,1.6619423805983472e+16,4.68886319975873e+16,9.418649797012278e+16,3.062471971811741e+16
53120.22611848305,3.316661793125008e+17,6.384218324605793e+17,1.0612964556869531e+17,1438121073369770.8,1.6836955215561058e+16,4.941065886010401e+16,9.925238346599386e+16,3.3687888964354548e+16
58433.24873033136,3.3179807292860154e+17,6.4965367651893e+17,1.0617175695361112e+17,1453530148513456.5,1.7014526957276954e+16,5.190193282059558e+16,1.0425648185721067e+17,3.7057374853122056e+16
64277.57360336451,3.319251834085741e+17,6.61010755309716e+17,1.0621234108048198e+17,1465847214979504.8,1.7155954918555456e+16,5.433798172030018e+16,1.0914963797794126e+17,4.076380898888345e+16
70706.33096370097,3.3204655011845056e+17,6.72455301726601e+17,1.0625109124611907e+17,1475450411444114.0,1.7265704955842492e+16,5.6693864189629144e+16,1.1388175468116085e+17,4.484088612395514e+16
77777.96406007107,3.3216125082037235e+17,6.839544781051473e+17,1.0628771300840288e+17,1482747254062067.0,1.7348582262592252e+16,5.894501781410637e+16,1.1840349647495413e+17,4.932567047065652e+16
85556.76046607818,3.3226843041048064e+17,6.954832909492251e+17,1.0632193336131099e+17,1488148207270059.2,1.7409421298605766e+16,6.106821519124386e+16,1.2266820983618584e+17,5.425893264412821e+16
94113.436512686,3.323673343840649e+17,7.070277555797613e+17,1.0635351141915723e+17,1492043080442018.2,1.7452809067328004e+16,6.304257777289645e+16,1.2663395955710309e+17,5.9685520298768696e+16
103525.78016395462,3.3245734528510394e+17,7.185881375182118e+17,1.06382250053595e+17,1494782543845657.8,1.7482868515252422e+16,6.4850579911179976e+16,1.3026554538171963e+17,6.565476582751489e+16
113879.3581803501,3.325380191172159e+17,7.301820430007613e+17,1.064080075182488e+17,1496666166398583.2,1.7503118403498474e+16,6.6478961647573896e+16,1.3353633531774362e+17,7.22209348300815e+16
125268.29399838512,3.326091176207365e+17,7.418470952768557e+17,1.0643070775348618e+17,1497937295583987.5,1.7516413364109934e+16,6.7919461810363544e+16,1.3642973800572792e+17,7.944371942684779e+16
137796.12339822366,3.3267063177141094e+17,7.536429292887575e+17,1.0645034788849933e+17,1498784062886870.8,1.7524955757304286e+16,6.91692861066549e+16,1.3894014279929155e+17,8.738878090270997e+16
151576.73573804603,3.327227920895851e+17,7.65652274996456e+17,1.0646700153238277e+17,1499345023733415.8,1.7530361919804712e+16,7.02312404211866e+16,1.4107318739617293e+17,9.612834661359078e+16
166735.40931185064,3.327660624837041e+17,7.77980982551766e+17,1.064808168082302e+17,1499717565030066.2,1.7533761013072396e+16,7.111348802212011e+16,1.4284527007810422e+17,1.057418665815042e+17
183409.95024303574,3.328011163066474e+17,7.907569650186307e+17,1.064920087083668e+17,1499967255620494.0,1.7535905164240948e+16,7.1828928877761416e+16,1.442823029594068e+17,1.1631673574658675e+17
201751.94526733932,3.3282881653971974e+17,8.041276608445765e+17,1.0650085276760275e+17,1500136776923583.2,1.753672678724006e+16,7.239424503880254e+16,1.4541779449301635e+17,1.2794908844127149e+17
221928.13979407327,3.32850069364429e+17,8.182591077932682e+17,1.0650763831220568e+17,1500230897317217.2,1.753735712314228e+16,7.282870057219475e+16,1.4629043921592803e+17,1.4074467230805098e+17
244121.9537734806,3.3286592131576646e+17,8.333308420031354e+17,1.0651269947900856e+17,1500301099204405.0,1.7537827247427368e+16,7.315282008268218e+16,1.469414631743102e+17,1.5481980960473552e+17
268535.1491508287,3.328773786247445e+17,8.495338048857395e+17,1.065163575358588e+17,1500351838909066.0,1.7538167024340816e+16,7.338708654881962e+16,1.4741200867853898e+17,1.7030245463452822e+17
295389.6640659116,3.3288538520910234e+17,8.670680749574458e+17,1.0651891385482054e+17,1500387296731539.8,1.7538404459586806e+16,7.355079514280024e+16,1.477408320817484e+17,1.8733335691265472e+17
