t(s),Total solute volume 1,Total retention volume 1,Total 1 volume 1,Total 2 volume 1,Total 3 volume 1,Total 4 volume 1,Total 5 volume 1,Total 6 volume 1
1.0,6253357524425597.0,9070922071291536.0,2817564546865970.5,0.0,0.0,0.0,0.0,0.0
2.1,9296469662518262.0,1.4062233710013058e+16,4188157518692876.5,4531497417412.157,60520807219721.42,147873881626314.72,303868962067013.0,60811380471490.336
3.3100000000000005,1.153715259915267e+16,1.819067428371756e+16,5197295407957029.0,11804805183874.38,155715913729895.53,370931715778161.06,764720677876954.9,153053164038965.06
4.641000000000001,1.3383661129513728e+16,2.198888931618047e+16,6028905213652362.0,21578478665169.676,282330969299129.9,653098460674975.6,1349252648516576.8,270062415858534.62
6.105100000000002,1.498402037986593e+16,2.5662424719863468e+16,6749661427851215.0,33866293273550.703,440631907832592.3,991923531868987.9,2051647169289547.5,410674009881581.44
7.7156100000000025,1.6407353701384698e+16,2.9321326000906196e+16,7390696200454347.0,48773954676708.43,632062007301655.5,1390033598933285.2,2876583020067676.0,575823518087830.6
9.487171000000004,1.7691089636662416e+16,3.3037620363455976e+16,7968865682954002.0,66454124153533.61,858647771775108.8,1852063902047172.5,3833165447959966.5,767333797903778.1
11.435888100000005,1.8857613400269164e+16,3.686578394719972e+16,8494250846101362.0,87089962836160.88,1122801420190834.8,2383634698328115.5,4932886154641263.0,987507464832861.1
13.579476910000007,1.992132668423213e+16,4.08517546997377e+16,8973337323400305.0,110888043209776.3,1427243988498663.5,2991057190838604.5,6188916184009889.0,1238985285548290.5
15.937424601000009,2.0891982040187664e+16,4.503754071493943e+16,9410517025006718.0,138074550218290.77,1774961775559296.8,3681297850614121.5,7615985277383057.0,1524722195970303.2
18.53116706110001,2.177654350187844e+16,4.9463873705040696e+16,9808926033714446.0,168893721198940.88,2169188936885063.2,4461988499939483.5,9230351648982206.0,1847981362442075.5
21.384283767210015,2.258029595947239e+16,5.417190297885677e+16,1.0170944172027876e+16,203607715012187.84,2613405576475781.5,5341460324318476.0,1.1049846003365698e+16,2212343228184378.5
24.522712143931017,2.330755123939736e+16,5.9204383496263704e+16,1.0498512959700428e+16,242497676499814.44,3111349007087402.5,6328789440148091.0,1.3093959643653792e+16,2621723529776666.0
27.97498335832412,2.3962116748288964e+16,6.46065838541764e+16,1.0793346658634684e+16,285865924317038.25,3667037693798553.5,7433852007492548.0,1.538396655340773e+16,3080398268236826.0
31.772481694156536,2.4547612062454892e+16,7.042703510518415e+16,1.1057074855411842e+16,334039257816101.1,4284808271296464.0,8667389680191061.0,1.794307601942504e+16,3593034958588719.5
35.949729863572195,2.506767973801963e+16,7.671818938734299e+16,1.1291337418913474e+16,387373389516603.94,4969366250201158.0,1.0041087145600146e+16,2.0796615359838484e+16,4164730085253710.5
40.544702849929415,2.552611663517084e+16,8.353703031161694e+16,1.1497843670932362e+16,446258483624219.7,5725850782083840.0,1.1567663839395846e+16,2.3972243890943656e+16,4801053009466121.0
45.59917313492236,2.5926941848555796e+16,9.094566256830962e+16,1.167840301295077e+16,511125732073401.44,6559913274377997.0,1.3260981945989744e+16,2.7500200022254908e+16,5508096732107152.0
51.1590904484146,2.6274412507776356e+16,9.901190045295773e+16,1.1834932077683548e+16,582454840438987.2,7477808868775022.0,1.5136172633969648e+16,3.141358356350804e+16,6292535960806240.0
57.27499949325607,2.6572996922963564e+16,1.0780987102796346e+17,1.1969442668436464e+16,660782239896454.5,8486498970351338.0,1.7209782186648116e+16,3.5748675139881132e+16,7161692899786305.0
64.00249944258168,2.6827314395054604e+16,1.1742064581595565e+17,1.2084014679887822e+16,746709801328625.4,9593762308220076.0,1.9499939306306244e+16,4.054529421563233e+16,8123611109525852.0
71.40274938683986,2.7042051530253e+16,1.2793291430092774e+17,1.2180758428934724e+16,840913815095122.5,1.0808311590336458e+16,2.202654443449683e+16,4.584719679565311e+16,9187137706158528.0
79.54302432552385,2.722186539267628e+16,1.3944371246926181e+17,1.2261771048158688e+16,944154022226998.4,1.2139912820426592e+16,2.4811481491814372e+16,5.170251357289494e+16,1.0362014121064078e+16
88.49732675807624,2.737128380437975e+16,1.5205921973466624e+17,1.2329091584614746e+16,1057282540930189.4,1.359950483886706e+16,2.7878852068543544e+16,5.816422925060536e+16,1.1658975646725714e+16
98.34705943388387,2.749461227707943e+16,1.658956375914233e+17,1.2384659076396008e+16,1181252619974145.2,1.5199317599314844e+16,3.1255231873174336e+16,6.529070407299215e+16,1.30898600724924e+16
109.18176537727226,2.7595855381235812e+16,1.810801630973118e+17,1.2430277124381332e+16,1317127254870999.0,1.6952988964635162e+16,3.4969949245073092e+16,7.314623926052136e+16,1.4667725866594216e+16
121.09994191499949,2.767865798713631e+16,1.9775206979391104e+17,1.2467587409293426e+16,1466087806767962.5,1.8875681187622652e+16,3.90553858119773e+16,8.18016890131245e+16,1.6406980577988596e+16
134.20993610649944,2.7746269074012516e+16,2.160639080241522e+17,1.2498053370918962e+16,1629442850651739.8,2.098419949508823e+16,4.3547299930068856e+16,9.133512291123166e+16,1.8323520392180228e+16
148.6309297171494,2.7801528098831092e+16,2.3618283596944195e+17,1.252295404806862e+16,1808637535779426.0,2.3297116111623492e+16,4.8485174338547e+16,1.0183254378328885e+17,2.043488205330318e+16
164.49402268886433,2.784687162499855e+16,2.5829209228739203e+17,1.254338704531121e+16,2005263761150929.0,2.583490351849359e+16,5.3912590398772456e+16,1.1338866730176045e+17,2.276040863690504e+16
181.94342495775078,2.7884356302986452e+16,2.8259262114729226e+17,1.2560278867528052e+16,2221071454135333.8,2.8620080727807636e+16,5.9877632251259176e+16,1.261077706355757e+17,2.5321430907999996e+16
201.13776745352587,2.791569348305828e+16,3.093048608346789e+17,1.2574400497049626e+16,2457981199411096.0,3.1677375945386252e+16,6.6433325098171096e+16,1.4010461839059592e+17,2.8141466221006964e+16
222.25154419887846,2.794229067958129e+16,3.386707079538747e+17,1.2586386060264736e+16,2718098410144443.5,3.5033908344158796e+16,7.363811252474227e+16,1.5550547481953514e+17,3.124643711544793e+16
245.47669861876633,2.7965295631370012e+16,3.709556705528517e+17,1.2596752666657306e+16,3003729175961736.5,3.871939093654456e+16,8.155637828123157e+16,1.7244921191748797e+17,3.466491194359756e+16
271.024368480643,2.7985639587411824e+16,4.064512251340189e+17,1.2605919901574456e+16,3317397872272810.0,4.276635585647965e+16,9.025901827932867e+16,1.910885235903504e+17,3.8428370046601224e+16
299.1268053287073,2.8004077466427296e+16,4.454773943824085e+17,1.2614227912961252e+16,3661866578191688.5,4.721040282544016e+16,9.982406877106616e+16,2.115912566411996e+17,4.2571494187121656e+16
330.03948586157804,2.802122351054735e+16,4.8838556442926086e+17,1.2621953470037312e+16,4040156326692864.5,5.209047121031958e+16,1.1033739684656162e+17,2.3414186990400403e+17,4.7132493161098024e+16
364.0434344477359,2.803758186192157e+16,5.3556156248669926e+17,1.2629323736142028e+16,4455570198374675.5,5.744913586479483e+16,1.2189345957623573e+17,2.5894303349074448e+17,5.215345775848593e+16
401.44777789250946,2.805357208578469e+16,5.874290176793519e+17,1.263652776594545e+16,4911718264959646.0,6.333292683013964e+16,1.3459613838213e+17,2.8621738081937014e+17,5.768075353102111e+16
442.5925556817604,2.806955004528573e+16,6.444530298298138e+17,1.2643725909285534e+16,5412544385526271.0,6.979267289474747e+16,1.48559655577567e+17,3.162094268562029e+17,6.3765454161200776e+16
487.8518112499365,2.8085824735026464e+16,7.071441728132091e+17,1.2651057394809448e+16,5962354852885129.0,7.688386891414072e+16,1.63909580469329e+17,3.491876668293899e+17,7.046381961762882e+16
537.6369923749302,2.810267174808782e+16,7.760628608768037e+17,1.2658646397223738e+16,6565848875778255.0,8.466706662465541e+16,1.8078393296317357e+17,3.85446870532431e+17,7.78378237354544e+16
592.4006916124232,2.8120344031719428e+16,8.518241080178488e+17,1.2666606883185358e+16,7228150861875815.0,9.320828840485797e+16,1.9933439323119933e+17,4.2531058822154374e+17,8.595573638346693e+16
652.6407607736655,2.8139080518683704e+16,9.351027121117664e+17,1.267504650019163e+16,7954844434771917.0,1.025794630193098e+17,2.197276266716365e+17,4.691338849797339e+17,9.489276598743869e+16
718.9048368510321,2.815911313264378e+16,1.0266388969562868e+18,1.2684069732944914e+16,8752008073569713.0,1.1285888179413834e+17,2.4214673407600858e+17,5.1730632127715437e+17,1.0473176886982598e+17
791.7953205361354,2.8180672575565504e+16,1.1272444467009658e+18,1.2693780510955168e+16,9626252204640510.0,1.2413167290185709e+17,2.6679283765628045e+17,5.702551981650855e+17,1.1556403268658299e+17
871.9748525897489,2.8203993222403092e+16,1.2378093682038894e+18,1.2704284413901598e+16,1.0584757499792312e+16,1.3649029044654056e+17,2.938868141700717e+17,6.284490862846163e+17,1.2749014216656261e+17
960.1723378487239,2.8229317378581788e+16,1.3593091176166656e+18,1.2715690589857688e+16,1.1635314041533238e+16,1.5003501381685725e+17,3.236711871780479e+17,6.924016581985367e+17,1.4062093641325038e+17
1057.1895716335964,2.8256899099349372e+16,1.4928124278427676e+18,1.2728113476061854e+16,1.278636090186138e+16,1.6487445127966634e+17,3.5641219086652205e+17,7.626758437259665e+17,1.550785684933426e+17
1163.9085287969563,2.8287007725189696e+16,1.6394897733178875e+18,1.2741674391700722e+16,1.404702554295458e+16,1.8112603997861235e+17,3.9240201817422054e+17,8.39888328392291e+17,1.709976791129214e+17
1281.299381676652,2.8319931254828256e+16,1.8006225076750781e+18,1.2756503057457574e+16,1.542716228430926e+16,1.9891653236252765e+17,4.319612668853874e+17,9.247144133887388e+17,1.885266984418335e+17
1410.4293198443174,2.8355979651719196e+16,1.9776127081051525e+18,1.2772739085027972e+16,1.6937388887044992e+16,2.1838245653225904e+17,4.7544159638122784e+17,1.0178932547554045e+18,2.0782929281246736e+17
1552.4722518287492,2.839548815959389e+16,2.1719937574003843e+18,1.2790533470652746e+16,1.8589120078699104e+16,2.3967053501627856e+17,5.232286073233757e+17,1.1202335003747526e+18,2.2908597297702838e+17
1708.7194770116243,2.843882069125228e+16,2.3854416905406705e+18,1.2810050121584998e+16,2.0394596581059544e+16,2.6293804308799754e+17,5.757449579870412e+17,1.2326193345547927e+18,2.5249588751694227e+17
1880.5914247127869,2.8486373344433816e+16,2.6197873269746714e+18,1.2831467439744582e+16,2.2366907904415732e+16,2.883530838277176e+17,6.334537265277051e+17,1.356016936501795e+18,2.7827883142885894e+17
2069.6505671840655,2.853857808575454e+16,2.8770292021686835e+18,1.2854979981021356e+16,2.452000682951952e+16,3.160947526382964e+17,6.968620240844151e+17,1.4914813718047032e+18,3.066774887449706e+17
2277.615623902472,2.8595906642184708e+16,3.159347302211783e+18,1.2880800208008568e+16,2.686871312407042e+16,3.4635315905759814e+17,7.665248691068365e+17,1.640163900761895e+18,3.379599533111901e+17
2506.3771862927197,2.8658874639436892e+16,3.4691175929044444e+18,1.290916035390184e+16,2.942870363406627e+16,3.7932926842337754e+17,8.430493223897898e+17,1.8033196588193646e+18,3.7242260464451136e+17
2758.0149049219917,2.8728046004669856e+16,3.8089273194566364e+18,1.2940314405389464e+16,3.221648543435023e+16,4.152345198677179e+17,9.270988573639631e+17,1.9823157791092375e+18,4.103933172713067e+17
3034.816395414191,2.8804037651984052e+16,4.1815910343130235e+18,1.2974540212848624e+16,3.5249348263482076e+16,4.542901711558525e+17,1.0193979683350157e+18,2.178639869064822e+18,4.522350996290173e+17
3339.2980349556105,2.888752449411232e+16,4.5901672882585605e+18,1.3012141747406426e+16,3.854529204437864e+16,4.9672631552891974e+17,1.1207370024374427e+18,2.3939085433511875e+18,4.983504686551065e+17
3674.227838451172,2.897924474771521e+16,5.037975893575217e+18,1.305345149013497e+16,4.212292477758535e+16,5.4278050832947104e+17,1.231977072071472e+18,2.629876627792979e+18,5.4918606436586995e+17
4042.6506222962894,2.908000552617046e+16,5.528615637429738e+18,1.3098832950617426e+16,4.600132573414327e+16,5.92695936794846e+17,1.3540551101841866e+18,2.8884461901247007e+18,6.052382361150733e+17
4447.915684525919,2.919068880765889e+16,6.065982288318365e+18,1.3148683354476252e+16,5.0199868772668024e+16,6.467190657771153e+17,1.4879889682528248e+18,3.1716748601178276e+18,6.670601532358072e+17
4893.707252978511,2.931225750372816e+16,6.654286699108496e+18,1.3203436375856892e+16,5.4737999951473144e+16,7.050966797673633e+17,1.6348820491999752e+18,3.4817869110131185e+18,7.352673652969866e+17
5384.077978276362,2.944576196745713e+16,7.298072766117939e+18,1.3263565067900946e+16,5.963496474742196e+16,7.680722636878185e+17,1.7959283979149635e+18,3.821177992642381e+18,8.105498200899904e+17
5923.485776103998,2.9592346383187276e+16,8.002234956590972e+18,1.3329584739383282e+16,6.490947920092787e+16,8.358816398587735e+17,1.972416068924794e+18,4.192430087299958e+18,8.93675750183951e+17
6516.834353714399,2.975325551114183e+16,8.772035067031936e+18,1.3402055991187062e+16,7.057934215202128e+16,9.087478315847107e+17,2.1657317133212278e+18,4.598309448113256e+18,9.85511420358387e+17
7169.5177890858395,2.9929841624089028e+16,9.613117819665986e+18,1.3481587838909918e+16,7.666098648124291e+16,9.86875118501382e+17,2.377362219760802e+18,5.041787007928614e+18,1.0870210575309245e+18
7887.469567994424,3.0123571149486124e+16,1.0531524859338897e+19,1.3568840702509056e+16,8.316896881904083e+16,1.0704422792210203e+18,2.608897870483454e+18,5.526033127835069e+18,1.199290201128313e+18
8677.216524793868,3.0336031700360684e+16,1.1533706656140036e+19,1.3664529570808968e+16,9.011540353856946e+16,1.159595096000471e+18,2.8620323332532004e+18,6.054422875043553e+18,1.323540387033059e+18
9545.938177273256,3.056893900033737e+16,1.2626531778918857e+19,1.3769427118044986e+16,9.750934906603272e+16,1.2544382284547226e+18,3.138561423663494e+18,6.630545375267618e+18,1.4611390363485814e+18
10501.531995000581,3.082414444188671e+16,1.381729296456309e+19,1.3884367105780212e+16,1.0535616421891354e+17,1.3550267018305984e+18,3.440382322179013e+18,7.258196146725351e+18,1.613623118061534e+18
11552.68519450064,3.1103642313821624e+16,1.5113709385186687e+19,1.4010247635281342e+16,1.1365685501843264e+17,1.4613572627767693e+18,3.769488573827974e+18,7.94136947641602e+18,1.7827233271983713e+18
12708.953713950705,3.140957652084697e+16,1.6523924513739487e+19,1.4148034170648494e+16,1.2240744276717814e+17,1.5733600105092954e+18,4.127961874461587e+18,8.684246357936926e+18,1.9703912173730033e+18
13760.106913450763,3.1685876802158572e+16,1.7793160912110002e+19,1.427247374913096e+16,1.30070810841662e+17,1.6713674324585487e+18,4.4513624719550044e+18,9.352436839001047e+18,2.1419650073024256e+18
14916.375432900828,3.1989128480572716e+16,1.9174199841002623e+19,1.4409051262217912e+16,1.3815804204013691e+17,1.774705826500273e+18,4.803378385653587e+18,1.0078984198926696e+19,2.3325752081391375e+18
15967.528632400887,3.2263434073811444e+16,2.0417476459544973e+19,1.4532591739858684e+16,1.4524604424525347e+17,1.8651992641362248e+18,5.120862280562259e+18,1.073250606993459e+19,2.5068667748529715e+18
16923.122450128212,3.2512098192072772e+16,2.1537828876371763e+19,1.4644583638951354e+16,1.5148167877542806e+17,1.944747645646126e+18,5.407340015401253e+18,1.1320837179205526e+19,2.666265675512417e+18
17974.27564962827,3.278512352137245e+16,2.275846657792065e+19,1.4767546825630396e+16,1.5809377399963693e+17,2.0290236829767478e+18,5.719132845479608e+18,1.1961290998853081e+19,2.8433726062646134e+18
18929.8694673556,3.3032327875761228e+16,2.385861781526789e+19,1.4878880628277702e+16,1.639130303392231e+17,2.1031327383427356e+18,6.000492723723554e+18,1.2537954769179906e+19,3.005213345178436e+18
19798.591119834986,3.3256471638775604e+16,2.4851022436437266e+19,1.4979828363590848e+16,1.690515791341048e+17,2.168523000388022e+18,6.254512753777921e+18,1.3057580379176247e+19,3.1531184239586063e+18
20588.33807663443,3.345983201048717e+16,2.5746914577315836e+19,1.5071415681757992e+16,1.7360217229079622e+17,2.2263901962939804e+18,6.48390852410102e+18,1.3526298893722305e+19,3.2881835432154557e+18
21457.05972911382,3.368307128752662e+16,2.6724897291504534e+19,1.5171955553349248e+16,1.784627681041385e+17,2.2881479066603174e+18,6.733824924510828e+18,1.4037463010432053e+19,3.438143654956342e+18
22412.653546841146,3.3927629789221212e+16,2.779176718423233e+19,1.5282096517508842e+16,1.836392652853516e+17,2.3538569116680054e+18,7.005973253954987e+18,1.4594581648367604e+19,3.604506378649658e+18
23281.375199320533,3.4149048340072564e+16,2.875441354561336e+19,1.5381815787732794e+16,1.882136314026846e+17,2.4118759509575885e+18,7.251883233413405e+18,1.5096677397908988e+19,3.7562324678029076e+18
24071.122156119978,3.4349815331727164e+16,2.9623658040282583e+19,1.547223416440038e+16,1.9226821336734998e+17,2.4632657422757396e+18,7.474110464769651e+18,1.5549376597357689e+19,3.894814973016e+18
24789.073935028562,3.4531975894160548e+16,3.0409079263036215e+19,1.5554272737424368e+16,1.9587134969957738e+17,2.5089032410425477e+18,7.674867215835493e+18,1.595820523647187e+19,4.021145971355135e+18
25578.820891828007,3.473186809559818e+16,3.126731340313137e+19,1.5644296757661588e+16,1.9973478251288454e+17,2.557796954282282e+18,7.893662308764972e+18,1.6404309717026103e+19,4.161433475691856e+18
26447.542544307395,3.495084853409322e+16,3.2204548255531872e+19,1.5742917054962018e+16,2.038665845251438e+17,2.610036506085348e+18,8.132025094350247e+18,1.6890901170756948e+19,4.3170251342251305e+18
27237.28950110684,3.5149218123672164e+16,3.305102769008347e+19,1.5832254852852454e+16,2.0753158733911296e+17,2.6563388251806203e+18,8.347612170819901e+18,1.7329710814691512e+19,4.4588528190757914e+18
27955.241280015423,3.532912329739785e+16,3.3816027451173777e+19,1.5913276907210968e+16,2.1079120426203488e+17,2.697492180924673e+18,8.542473774880041e+18,1.7726107641775065e+19,4.58792024912737e+18
28607.924715386864,3.5492415935559796e+16,3.4507784982326075e+19,1.5986817290848324e+16,2.1369708784025254e+17,2.7341585026982154e+18,8.7187951398346e+18,1.8083752836486982e+19,4.705902182239634e+18
29325.876494295448,3.5671577624843276e+16,3.526430017008726e+19,1.6067504238255006e+16,2.1682349517274672e+17,2.773574635681999e+18,8.910954687304378e+18,1.84743620101466e+19,4.836846259918422e+18
29978.559929666888,3.583403272827792e+16,3.594843382553057e+19,1.6140667096568284e+16,2.1961081047681533e+17,2.808691077183033e+18,9.084612538824239e+18,1.8827752726806225e+19,4.955791972415357e+18
30696.511708575472,3.6012188526610056e+16,3.6696670293034254e+19,1.6220900675881944e+16,2.226105319026822e+17,2.8464524826357115e+18,9.274204027771083e+18,1.921319001050877e+19,5.087980151013481e+18
31486.258665374917,3.620730735356312e+16,3.751458810857077e+19,1.6308773358255846e+16,2.2583166071338067e+17,2.8869613381652895e+18,9.480812946950773e+18,1.9634039634186502e+19,5.234426447842989e+18
32204.2104442835,3.638411528406213e+16,3.825395683664089e+19,1.63883995211573e+16,2.286995230897343e+17,2.923001888280086e+18,9.667758548120234e+18,2.001437429779288e+19,5.36735006455276e+18
32856.89387965494,3.654454904527657e+16,3.892268588385726e+19,1.6460651495979888e+16,2.312591954156464e+17,2.9551525460429624e+18,9.837074294310748e+18,2.0357579437537026e+19,5.488615210009614e+18
33574.84565856353,3.672050975054516e+16,3.965419515773284e+19,1.6539895918188688e+16,2.3401677124537606e+17,2.9897603044689116e+18,1.0021670528419564e+19,2.0732120616173445e+19,5.623366531756791e+18
34227.52909393497,3.688007950549506e+16,4.031586063106911e+19,1.6611758521666588e+16,2.3647847806791888e+17,3.0206337104135485e+18,1.0188451383718263e+19,2.1071239597091054e+19,5.745565623751206e+18
34820.87767154537,3.702495133745892e+16,4.091464052801747e+19,1.6677001883593066e+16,2.3868088393925338e+17,3.0482426273685053e+18,1.0339813541246806e+19,2.1376699420301775e+19,5.857502101940069e+18
