t(s),Total solute volume 1,Total retention volume 1,Total 1 volume 1,Total 2 volume 1,Total 3 volume 1,Total 4 volume 1,Total 5 volume 1,Total 6 volume 1
1.0,3805481240629705.0,3849035389865378.5,43554149235680.42,0.0,0.0,0.0,0.0,0.0
2.1,5845640164229727.0,5916640813545891.0,66903942821131.81,431445303.2960214,3659330452.32867,155567075916.30936,2659287043390.761,1277761599954.6138
3.3100000000000005,7485663795946753.0,7582226269233351.0,85674154282178.56,1160086821.15497,9839182829.830645,417777228542.91614,7066107521906.21,3393434984320.96
4.641000000000001,8949741221048760.0,9072543963395634.0,102430648254723.42,2185855869.20091,18538985502.45066,786668424712.7114,13222782110047.723,6341918716011.463
6.105100000000002,1.0321360442105066e+16,1.0472275298817438e+16,118128951299761.27,3534012380.899705,29972981746.293594,1271382043452.1238,21284319227315.105,10196697147715.97
7.7156100000000025,1.1642346648182376e+16,1.1824079527194788e+16,133247755881042.55,5243038923.997748,44467552033.917984,1885801129942.3154,31481939047663.316,15067672362809.455
9.487171000000004,1.2937396376915926e+16,1.3153384867562752e+16,148069715777519.72,7361905035.341578,62438015466.31859,2647581209543.86,44107947379788.32,21093446359507.63
11.435888100000005,1.4222760308450838e+16,1.4477167999394108e+16,162780821301421.16,9949684840.34622,84385387956.82137,3578021549290.654,59514051576614.93,28440461443108.465
13.579476910000007,1.5510007118206514e+16,1.5807766202402002e+16,177513476868807.16,13076087991.418247,110900885670.5753,4702263318673.723,78114805498756.12,37304561535591.93
15.937424601000009,1.6807887324182652e+16,1.7154771884117198e+16,192367832869330.94,16822482670.028694,142674601416.29507,6049665078448.817,100393850305046.66,47913714597624.055
18.53116706110001,1.8123348033045344e+16,1.852607069731517e+16,207423399510717.28,21283267005.56526,180507135857.867,7654304956279.89,126912162264654.75,60531007135331.055
21.384283767210015,1.9462127536210748e+16,1.9928454920591196e+16,222745852015745.47,26567543783.607925,225323800880.1946,9555594060181.295,158318040250678.38,75456006709153.86
24.522712143931017,2.0829128964450548e+16,2.136800888230908e+16,238391307127898.75,32801100808.323524,278191415202.6976,11799002772304.08,195358760451363.3,93019854990914.84
27.97498335832412,2.2228678116170156e+16,2.2850364312090604e+16,254409273976320.2,40128735281.380646,340338017609.01215,14436914545515.033,238893840876877.9,113565699768849.89
31.772481694156536,2.3664725599467704e+16,2.4380877770039212e+16,270844967606800.3,48716993642.22482,413176103555.7944,17529633233120.814,289909565789176.6,137406110845194.55
35.949729863572195,2.5141019038637572e+16,2.596475942675969e+16,287741279891984.75,58757408766.974915,498330078844.69415,21146571401437.39,349533410442299.1,164762038898868.72
40.544702849929415,2.6661233930692324e+16,2.7607170093656504e+16,305140277170949.44,70470268840.55219,597668218748.518,25367624213148.67,419044975036786.8,195715148055661.44
45.59917313492236,2.8229030992464812e+16,2.9313295974930132e+16,323083856537830.5,84108862888.51558,713338660898.8854,30284693225211.59,499878041898970.75,230220943279545.84
51.1590904484146,2.984803540463314e+16,3.1088405384565628e+16,341613508200464.56,99964136072.95312,847808857839.8488,36003315394752.03,593609338805603.4,268196044537658.9
57.27499949325607,3.1521787043175984e+16,3.2937887237630496e+16,360769745764789.25,118369826997.39026,1003909095670.3927,42644405694011.586,701934965250856.6,309628798822185.75
64.00249944258168,3.325371612533331e+16,3.486726692844146e+16,380591827385693.06,139708287329.50058,1184881772553.3264,50346174289834.86,826641552222742.1,354646659149985.3
71.40274938683986,3.504714443278141e+16,3.688219139885293e+16,401117769661032.4,164417110901.88675,1394437510838.4626,59266256832504.64,969581400852051.4,403522684104201.1
79.54302432552385,3.690526707263058e+16,3.898837249618425e+16,422384138799950.6,192996494362.4145,1636817437617.3557,69584026804588.18,1132659071599654.5,456648372417534.06
88.49732675807624,3.883106959764497e+16,4.119147711543854e+16,444425102004634.3,226017076219.94797,1916859484682.4153,81503005755663.55,1317833549320020.5,514502984152412.9
98.34705943388387,4.082715793332943e+16,4.349695497190494e+16,467270480965777.4,264127887989.945,2240065603406.143,95253261904663.17,1527136399490274.0,577632702723468.6
109.18176537727226,4.289549976602598e+16,4.590980048925725e+16,490942792080174.56,308063960258.20386,2612666024196.3027,111093671968986.23,1762702898355154.0,646640630842468.9
121.09994191499949,4.503709072337995e+16,4.843425377764494e+16,515453425975252.5,358653041665.73535,3041675975798.6455,129313906267752.58,2026810856631287.0,722184536373273.2
134.20993610649944,4.725156915166216e+16,5.1073455784739256e+16,540798238783721.9,416820821365.01483,3534939712103.0786,150235985661604.06,2321921342263689.5,804979305834670.6
148.6309297171494,4.95368110372185e+16,5.3829082621009624e+16,566952916221277.0,483594011931.4704,4101156413242.3306,174215256376242.6,2650716565760281.0,895802095008285.1
164.49402268886433,5.1888541505905624e+16,5.670099183351037e+16,593868527442314.8,560100661627.583,4749882632062.227,201640639920922.5,3016132114577353.5,995499062370480.9
181.94342495775078,5.42999922501013e+16,5.9686917624162856e+16,621467604564563.2,647567025688.5654,5491505626617.304,232934007996567.9,3421386969234146.5,1104997719614017.4
201.13776745352587,5.676169151387021e+16,6.278225089762798e+16,649641739343887.6,747311138488.5388,6337188813789.889,268548815065104.97,3869987141289016.0,1225297188107316.2
222.25154419887846,5.926128957497304e+16,6.597993714149999e+16,678249586093287.6,860731328268.7124,7298774453095.241,308967470893214.94,4365765820468578.5,1357505183290557.8
245.47669861876633,6.178361091959029e+16,6.9270516396765944e+16,707117459097916.5,989291502043.8601,8388659101114.565,354698166599347.44,4912882097788198.0,1502829803087031.5
271.024368480643,6.431082144973806e+16,7.264232179165958e+16,736041246535056.5,1134501992085.2598,9619631601588.902,406270803999646.0,5515838890189628.0,1662595267603460.2
299.1268053287073,6.6822766475509944e+16,7.608184449892139e+16,764790278972248.4,1297897043429.1968,11004682782717.898,464232442627129.56,6179498630631939.0,1838254091353718.5
330.03948586157804,6.929746982526936e+16,7.957426519203174e+16,793113041783450.8,1481009812771.0603,12556794237657.719,529142560542269.25,6909101572196253.0,2031400388189992.0
364.0434344477359,7.171178541395523e+16,8.310414462797477e+16,820744632350958.8,1685346335744.4631,14288718514382.613,601568568614881.8,7710287496471645.0,2243784451731744.5
401.44777789250946,7.40421846917519e+16,8.665625791714357e+16,847415772303778.0,1912360454380.2666,16212767544976.68,682082134687138.8,8589121432986123.0,2477328757415146.0
442.5925556817604,7.626565365744542e+16,9.021654728835211e+16,872863073600415.5,2163432189119.0813,18340630288375.45,771256979244778.1,9552123966168224.0,2734145549415860.0
487.8518112499365,7.836066114857944e+16,9.377315619948624e+16,896840120253901.1,2439852371391.731,20683243344271.184,869668873431508.0,1.0606306766235762e+16,3016556195269901.5
537.6369923749302,8.030814657767366e+16,9.731749402119418e+16,919128772514232.5,2742816376705.6133,23250738482734.863,977898571550349.5,1.1759214032893366e+16,3327112511703102.0
592.4006916124232,8.209246208777773e+16,1.0084526701737374e+17,939549949311544.6,3073429366943.974,26052487381932.992,1096538309430533.5,1.3018970468734112e+16,3668620285370823.0
652.6407607736655,8.370219419680421e+16,1.0435740079127032e+17,957973031428228.6,3432724455464.6904,29097255458786.594,1226202268610363.2,1.4394336084274976e+16,4044165230238366.0
718.9048368510321,8.513078678799762e+16,1.0786077508216459e+17,974322991114598.1,3821693625179.3726,32393463308396.812,1367541031163079.2,1.5894767477282452e+16,4457141637673195.5
791.7953205361354,8.637689382471042e+16,1.1136869681332856e+17,988584428493747.0,4241329159937.678,35949536794978.64,1521259544331607.5,1.7530484164934924e+16,4911283984903003.0
871.9748525897489,8.744441125636186e+16,1.149010527826924e+17,1000801936452127.1,4692671209298.233,39774308774778.85,1688137578435864.2,1.9312534695834548e+16,5410700335623855.0
960.1723378487239,8.83421441356579e+16,1.184841148762085e+17,1011076290693744.8,5176853750874.905,43877407050961.12,1869050689743507.2,2.1252872772344384e+16,5959916726967059.0
1057.1895716335964,8.908317499259482e+16,1.2214999574210456e+17,1019557220856828.0,5695143527211.121,48269582814806.305,2064990454347749.8,2.3364398627648892e+16,6563909720314175.0
1163.9085287969563,8.968391177789442e+16,1.2593580652264432e+17,1026432514457037.8,6248959402980.632,52962873370727.28,2277080376439680.0,2.5661010727962144e+16,7228159293117439.0
1281.299381676652,9.016296680240837e+16,1.2988259449348069e+17,1031915186694515.8,6839867601889.858,57970560838971.69,2506586234562470.5,2.8157618221998052e+16,7958697619376529.0
1410.4293198443174,9.05399561205622e+16,1.340341681593217e+17,1036229739802616.2,7469546233929.998,63306871084650.57,2754918714603944.0,3.0870122823460504e+16,8762164343573995.0
1552.4722518287492,9.083434741582206e+16,1.3843592737735525e+17,1039598977505732.2,8139717513394.717,68986399326937.89,3023627474384710.0,3.3815360371675844e+16,9645867021126306.0
1708.7194770116243,9.106446820115629e+16,1.4313380763238682e+17,1042232654237123.5,8852049743948.523,75023279952832.75,3314386683868339.0,3.701099750061088e+16,1.061784726281733e+16
1880.5914247127869,9.124675691794218e+16,1.4817342160789392e+17,1044318904251132.0,9608034697268.805,81430148088603.1,3628972996663660.5,4.047538136933319e+16,1.168695323691784e+16
2069.6505671840655,9.13952988165489e+16,1.535994427953127e+17,1046018929967737.9,10408848487091.125,88216961433493.34,3969237536203256.0,4.422734240478391e+16,1.2862919297888468e+16
2277.615623902472,9.15216449506019e+16,1.5945523292063206e+17,1047464930460618.0,11255205012357.092,95389759104138.47,4337073665319751.0,4.8285950800046664e+16,1.4156453610086468e+16
2506.3771862927197,9.16348750158011e+16,1.6578267598954547e+17,1048760820667324.6,12147210519945.285,102949429838303.72,4734382013464267.0,5.267022678943555e+16,1.5579334709818644e+16
2758.0149049219917,9.174183972769678e+16,1.7262215376416243e+17,1049985005365090.8,13084226257227.934,110890548563945.2,5163033558871960.0,5.739880269705776e+16,1.714451800034945e+16
3034.816395414191,9.184750883760333e+16,1.8001258428845725e+17,1051194362140196.5,14064744260013.586,119200324080199.36,5624830702717869.0,6.248953210498364e+16,1.8866253212672264e+16
3339.2980349556105,9.19553556018597e+16,1.8799144670501046e+17,1052428641551447.5,15086279795217.05,127857687705868.38,6121465463669907.0,6.7959039124396264e+16,2.0760213906031972e+16
3674.227838451172,9.206772337474688e+16,1.9659472891121376e+17,1053714662700137.6,16145283383142.94,136832547740991.0,6654473363377649.0,7.382219953731363e+16,2.284364014195138e+16
4042.6506222962894,9.218613947372928e+16,2.058567547181157e+17,1055069905342910.2,17237075834811.541,146085238924292.06,7225181380128319.0,8.0091546090041e+16,2.513549555411496e+16
4447.915684525919,9.231156045261534e+16,2.1580986917432394e+17,1056505316984120.4,18355811148708.16,155566208004958.5,7834648535572640.0,8.677659269312403e+16,2.7656640156873896e+16
4893.707252978511,9.24445479138729e+16,2.2648398094425386e+17,1058027325005420.9,19494473927613.223,165215991924369.56,8483598190419049.0,9.38830766649101e+16,3.043002038419408e+16
5384.077978276362,9.25853835296982e+16,2.3790597731341866e+17,1059639153054186.6,20644919577867.004,174965558657143.72,9172341869992098.0,1.014121242600367e+17,3.3480878022402784e+16
5923.485776103998,9.27341362979999e+16,2.50099040534591e+17,1061341590772330.1,21797966334666.875,184737087361149.56,9900695339244658.0,1.0935935236467214e+17,3.68369798882062e+16
6516.834353714399,9.289069555808576e+16,2.630819049909065e+17,1063133371653365.2,22943547626057.426,194445259968541.53,1.066788865139791e+16,1.1771392829736978e+17,4.0528870304804856e+16
7169.5177890858395,9.305478156362646e+16,2.7686810458784432e+17,1065011294048222.9,24070931111717.625,203999117889643.2,1.1472472990760138e+16,1.2645762004695018e+17,4.4590148643458216e+16
7887.469567994424,9.322594286135858e+16,2.914652701769862e+17,1066970191166187.8,25169006749611.4,213304503735253.3,1.2312228321551564e+16,1.3556388086415234e+17,4.905777442827264e+16
8677.216524793868,9.340354728010408e+16,3.068745482566084e+17,1069002827947707.8,26226640482450.797,222267059131162.44,1.3184077135991998e+16,1.4499702456016432e+17,5.397240275278691e+16
9545.938177273256,9.358677143943606e+16,3.230902244269588e+17,1071099780995071.2,27233082853841.242,230795687980363.34,1.4084010928994596e+16,1.547115604734084e+17,5.937875303329046e+16
10501.531995000581,9.377459242561339e+16,3.400996469792208e+17,1073249343307085.1,28178413605824.625,238806324542095.2,1.5007037323908124e+16,1.6465176871723123e+17,6.532601443101325e+16
11552.68519450064,9.396578453623707e+16,3.5788355566166656e+17,1075437487024068.0,29053994960576.92,246225774946105.25,1.5947156880403748e+16,1.7475160536975514e+17,7.186829161833992e+16
12708.953713950705,9.415892356821419e+16,3.764169255293448e+17,1077647912504007.9,29852899080326.03,252995339679182.3,1.6897379311741824e+16,1.8493503155037875e+17,7.906509494774554e+16
13980.849085345777,9.435240081619186e+16,3.956704327955168e+17,1079862208532418.1,30570270622769.69,259073885810739.06,1.784978884550723e+16,1.951168572583111e+17,8.698187951054094e+16
15379.933993880357,9.454444859071651e+16,4.156126355066004e+17,1082060144372187.9,31203584909939.227,264440034361881.03,1.8795667464234284e+16,2.052041776383935e+17,9.569063804961166e+16
16918.927393268394,9.473317852745952e+16,4.362129336258518e+17,1084220108203349.1,31752767275266.848,269093171017353.94,1.972568244945244e+16,2.1509845338321488e+17,1.0527055321922883e+17
18611.820132595236,9.491663315474536e+16,4.574453285588971e+17,1086319697300066.8,32220150225262.723,273053082232194.06,2.0630140781397428e+16,2.2469824642533136e+17,1.1580871526766483e+17
20474.00214585476,9.509285007929264e+16,4.792929407858954e+17,1088336452619032.0,32610261636634.24,276358159350887.03,2.1499307425411844e+16,2.3390256655232774e+17,1.2740091185525568e+17
22522.40236044024,9.525993676107797e+16,5.017531681790063e+17,1090248714576766.4,32929457455599.55,279062284943296.8,2.2323777521476388e+16,2.4261471602896195e+17,1.4015249741051314e+17
24775.642596484264,9.541615226995582e+16,5.248432823273267e+17,1092036558730525.0,33185433139738.42,281230691608407.53,2.309488448028136e+16,2.5074644272631424e+17,1.541793501672966e+17
27254.206856132692,9.555999081972464e+16,5.486061752603505e+17,1093682751800954.6,33386665435525.7,282935230542816.5,2.3805117865281456e+16,2.5822213611390496e+17,1.6960892581365997e+17
29980.627541745966,9.56902605043351e+16,5.731158976010571e+17,1095173652784137.4,33541846122443.227,284249572216922.1,2.4448517967517256e+16,2.6498273654248515e+17,1.8658141751559587e+17
32979.69029592056,9.580614981086437e+16,5.984825871549094e+17,1096499974171869.9,33659369329710.344,285244861268453.2,2.502100967112494e+16,2.709889905102578e+17,2.0525103295789235e+17
36278.65932551262,9.590727445276203e+16,6.248563900666683e+17,1097657317942940.0,33746923326031.383,285986256976738.06,2.5520638076721344e+16,2.762236870612141e+17,2.2578739997772538e+17
39907.525258063884,9.599369808695827e+16,6.524300372221928e+17,1098646412662719.1,33811218285517.297,286530626282598.8,2.5947673556816924e+16,2.806925639488802e+17,2.483771133723056e+17
43899.277783870275,9.606592263674427e+16,6.814398610708691e+17,1099473002729796.9,33857857724004.82,286925454538575.2,2.6304564863800228e+16,2.8442368068564787e+17,2.732254365696845e+17
48290.20556225731,9.612484711078893e+16,7.121652155451712e+17,1100147377070223.1,33891338521562.797,287208846130429.2,2.6595734898244424e+16,2.8746521287141632e+17,3.0055817310299923e+17
53120.22611848305,9.617169761012686e+16,7.449264738855302e+17,1100683568086693.6,33915147694044.215,287410345130792.9,2.682723282489913e+16,2.8988181011756986e+17,3.306237242720231e+17
58433.24873033136,9.620793505005533e+16,7.800819933748177e+17,1101098295561572.8,33931916391149.926,287552241007632.3,2.7006275357706724e+16,2.917498494535993e+17,3.636953510604949e+17
64277.57360336451,9.623515027035757e+16,8.180246126346732e+17,1101409766223178.1,33943593259944.12,287651038481705.4,2.7140725614508076e+16,2.931520720109598e+17,4.000736603408813e+17
70706.33096370097,9.625495798165976e+16,8.591783482549769e+17,1101636459992052.0,33951608036532.168,287718844551041.0,2.723856659967221e+16,2.9417217910537286e+17,4.400893376556916e+17
77777.96406007107,9.626890094059282e+16,9.039959571081481e+17,1101796033293127.2,33957008243693.05,287764527522943.75,2.7307425901089972e+16,2.948899612930915e+17,4.8410615140431405e+17
85556.76046607818,9.62783738324172e+16,9.529579218904809e+17,1101904447914176.0,33960563386783.984,287792785776185.2,2.7354198292622316e+16,2.9537743591423674e+17,5.3252425605412614e+17
94113.436512686,9.628457248700226e+16,1.0065732345159844e+18,1101975389797319.1,33962749610951.586,287811276759066.56,2.7384795384691028e+16,2.956962922883711e+17,5.857838249397513e+17
103525.78016395462,9.628847090561997e+16,1.065382082468018e+18,1102020006117429.1,33964124557201.484,287822905988003.7,2.7404030447737196e+16,2.9589672760932397e+17,6.443690464686747e+17
113879.3581803501,9.629082236877798e+16,1.1299603544126908e+18,1102046917961206.6,33964953902569.34,287829920549986.94,2.741562550478043e+16,2.960175441149152e+17,7.088125206318006e+17
125268.29399838512,9.6292179969293e+16,1.200925670211611e+18,1102062455322612.8,33965432719211.05,287833970357028.5,2.742231280810393e+16,2.9608721916371066e+17,7.797000964121034e+17
137796.12339822366,9.62929288817586e+16,1.2789445671746662e+18,1102071026418091.2,33965696855638.99,287836204409520.1,2.7425994598967132e+16,2.96125576477267e+17,8.576761942889919e+17
151576.73573804603,9.62933232051838e+16,1.3647404783600392e+18,1102075539340340.2,33965835930879.047,287837380700804.4,2.7427925410841268e+16,2.96145688784245e+17,9.434496622037962e+17
166735.40931185064,9.629352150865658e+16,1.4591022198159068e+18,1102077808868587.2,33965905871190.08,287837972252377.75,2.7428887857069796e+16,2.961557108029009e+17,1.0378002179602899e+18
183409.95024303574,9.629361725408227e+16,1.5628928263115e+18,1102078904648430.1,33965939639962.58,287838257866925.75,2.7429343014701228e+16,2.9616044671459795e+17,1.1415855362259606e+18
201751.94526733932,9.629366459311922e+16,1.6770585144503304e+18,1102079446430579.9,33965956336124.895,287838399082210.3,2.7429354649608704e+16,2.9616256674103194e+17,1.2557490446647232e+18
221928.13979407327,9.629369417575267e+16,1.8026380290822758e+18,1102079784995616.4,33965966769722.297,287838487329040.56,2.7429361920335548e+16,2.961625901160517e+17,1.3813284986310397e+18
244121.9537734806,9.629369965349114e+16,1.940774947300487e+18,1102079847686815.0,33965968701684.027,287838503669475.7,2.742936326664592e+16,2.9616259444425555e+17,1.5194654056160374e+18
268535.1491508287,9.62937048971984e+16,2.0927249676715566e+18,1102079907699588.6,33965970551104.59,287838519311779.06,2.7429364555426524e+16,2.961625985873695e+17,1.671415415234e+18
295389.6640659116,9.629371064421128e+16,2.259869278725895e+18,1102079973472559.1,33965972578037.688,287838536455474.7,2.742936596790761e+16,2.961626031281458e+17,1.8385597145031252e+18
324929.6304725028,9.62937169653738e+16,2.443727160209982e+18,1102080045816511.1,33965974807469.453,287838555311893.56,2.7429367521501076e+16,2.961626081225625e+17,2.0224175830246031e+18
357423.5935197531,9.629372391860459e+16,2.645969788431722e+18,1102080125394309.5,33965977259827.57,287838576053812.06,2.7429369230442184e+16,2.961626136163825e+17,2.2246601969875863e+18
