t(s),Total solute volume 1,Total retention volume 1,Total 1 volume 1,Total 2 volume 1,Total 3 volume 1,Total 4 volume 1,Total 5 volume 1,Total 6 volume 1
1.0,2383935323551076.5,2386029216451722.0,2093892900643.6287,0.0,0.0,0.0,0.0,0.0
2.1,3663519667919531.5,3667285487365698.5,3217796046068.5615,143075170.69711393,618157991.3138763,10364450500.736391,191375543837.74432,345522172603.2777
3.3100000000000005,4693364392193708.0,4698960586650902.0,4122344254351.5273,384814604.09096354,1662595838.722292,27879734195.1165,514766136960.4482,929156921230.1749
4.641000000000001,5613928180445984.0,5621637192718242.0,4930907243156.851,725292684.1741667,3133634940.5331893,52554776153.99335,970338106925.5917,1751353218401.235
6.105100000000002,6477599352297474.0,6487782592488663.0,5689499482760.948,1173009807.813467,5068001366.5722275,85009824536.53406,1569544109018.6084,2832945763706.151
7.7156100000000025,7310704850478582.0,7323796844698922.0,6421244836105.719,1740890049.8499243,7521533722.51137,126186989129.15471,2329778329988.5386,4205521641341.041
9.487171000000004,8128872636075961.0,8145385296615290.0,7139869881129.254,2445386854.1898417,10565319284.382364,177285953178.12906,3273189959146.2056,5909304039768.97
11.435888100000005,8942470022899958.0,8963001322715605.0,7854480587590.022,3306371771.33703,14285213288.749039,239756514674.31702,4426545513183.808,7992925615130.773
13.579476910000007,9758962104370226.0,9784207628878584.0,8571633804773.02,4347329452.749915,18782681403.836697,315313467111.60004,5821503211235.637,10513944014373.287
15.937424601000009,1.0584079002777384e+16,1.061484597451761e+16,9296362496717.861,5595719067.276945,24176361220.85312,405963737489.4675,7495112983896.161,13539760441844.932
18.53116706110001,1.142244694404635e+16,1.145967069672326e+16,10032730036823.19,7083452357.94345,30604127677.52894,514042230450.03894,9490476102922.617,17148816726675.904
21.384283767210015,1.2277946142151276e+16,1.2322709164488468e+16,10784144549899.29,8847466608.814497,38225568521.661156,642254871844.4514,11857536095599.197,21432013784694.543
24.522712143931017,1.3153910886094158e+16,1.3207464597987918e+16,11553534655278.346,10930377200.443941,47224803612.70628,793727825312.8822,14653981557439.773,26494312674870.41
27.97498335832412,1.4053224567455892e+16,1.411701396859947e+16,12343432932638.826,13381190346.5842,57813564209.40246,972061578284.9523,17946236586812.895,32456475291291.973
31.772481694156536,1.4978334347170188e+16,1.5054025599747206e+16,13155988804261.861,16256046239.34333,70234403611.17323,1181387863038.8364,21810501390636.02,39456884069246.26
35.949729863572195,1.5931198761825986e+16,1.602070963612428e+16,13992922515864.81,19618949175.52715,84763851531.01756,1426426408906.7236,26333788040794.906,47653354532003.24
40.544702849929415,1.691317930099885e+16,1.701871223233144e+16,14855429905370.412,23542427530.207317,101715265361.18471,1712537546067.1765,31614878627635.49,57224827560624.51
45.59917313492236,1.7924889673323686e+16,1.8048966965453236e+16,15744050008342.818,28108056049.42654,121441086587.48311,2045765942054.3972,37765119603545.84,68372807432951.555
51.1590904484146,1.8966020989749772e+16,1.9111521476932772e+16,16658511510738.125,33406768590.390514,144334191843.18152,2432870446847.92,44908960590434.58,81322403674477.78
57.27499949325607,2.003516490311021e+16,2.0205361176441972e+16,17597577406669.77,39538892521.41672,170828041418.422,2881335250905.887,53184150210282.164,96322843529965.88
64.00249944258168,2.112965815202189e+16,2.132825329090175e+16,18558908456362.04,46613846280.73597,201395372486.08594,3399358306813.6333,62741515328262.734,113647347569645.1
71.40274938683986,2.2245470330905384e+16,2.2476632976562516e+16,19538964611092.18,54749457678.89337,236545253803.90347,3995814127970.354,73744271619899.83,133592300586681.28
79.54302432552385,2.337715245638662e+16,2.3645549034646444e+16,20532959837668.24,64070880740.87941,276818405976.58057,4680189536094.326,86366840340359.16,156475699259006.97
88.49732675807624,2.4517858138265068e+16,2.482868109261239e+16,21534880713954.246,74709112263.9453,322780792374.00055,5462492614842.763,100793177265245.88,182634913848755.0
98.34705943388387,2.5659443190844492e+16,2.6018434235029824e+16,22537573921206.312,86799136158.76051,375015601984.98206,6353137066981.472,117214655407506.6,212423863051508.5
109.18176537727226,2.6792644321888224e+16,2.7206111979885708e+16,23532903192925.22,100477755526.63489,434113883240.1402,7362806480522.817,135827585286979.92,246209771398281.78
121.09994191499949,2.7907333468999656e+16,2.8382164561391144e+16,24511972707343.13,115881210929.2088,500664254183.09235,8502305813637.166,156830507535330.84,284369760870071.3
134.20993610649944,2.899284111574109e+16,2.953650639961147e+16,25465411067059.258,133142728611.62648,575242310094.1686,9782410738778.615,180421452991233.94,327287624034664.1
148.6309297171494,3.003833878469793e+16,3.0658893674453692e+16,26383707255679.957,152390191619.8842,658400562134.4958,11213729153150.477,206795431737817.38,375351230855325.75
164.49402268886433,3.103326710754332e+16,3.1739349289748596e+16,27257586626151.453,173744172665.43848,750659938924.826,12806592671847.63,236142475826773.0,428951122968926.1
181.94342495775078,3.196779100792206e+16,3.2768617770603988e+16,28078410703069.24,197316598876.16177,852504018129.1176,14570998469179.568,268646606195290.44,488480926697349.9
201.13776745352587,3.283325782074798e+16,3.373862695628566e+16,28838579564017.83,223210321060.42822,964377165852.6168,16516622404663.074,304486104080776.44,554340242001305.7
222.25154419887846,3.362262850851709e+16,3.4642927580837036e+16,29531910591020.023,251519819596.93817,1086687586625.7958,18652921921001.63,343835422200475.9,626940610201217.8
245.47669861876633,3.4330847936241664e+16,3.5477077351808056e+16,30153963695062.723,282333185138.14856,1219815880961.094,20989340934230.883,386868956615541.7,706715005255416.0
271.024368480643,3.4955119041275516e+16,3.6238934540394e+16,30702282128259.223,315735362630.7567,1364129060790.0256,23535618600934.53,433766711959149.2,794131022006684.5
299.1268053287073,3.5495049080061904e+16,3.692882880552896e+16,31176520936903.445,351812451229.41846,1519999126627.5051,26302190019432.34,484721640932728.3,889707562000127.8
330.03948586157804,3.5952644722694788e+16,3.7549584832181576e+16,31578442652546.32,390656634038.04895,1687824365714.7644,29300651171147.285,539948152069877.3,994034382593416.6
364.0434344477359,3.633214640264394e+16,3.810638729088826e+16,31911771795574.133,432371106907.14124,1868050646000.3901,32544245261591.938,599691003579488.4,1107793445854720.2
401.44777789250946,3.66397096612856e+16,3.860649241846642e+16,32181914989284.023,477074229458.2586,2061189349802.0874,36048316230274.66,664233592978881.8,1231780669403114.5
442.5925556817604,3.688295979639786e+16,3.905880987291505e+16,32395569792665.48,524902077428.3079,2267828400550.1113,39830670696233.33,733904569391647.5,1366926536158689.8
487.8518112499365,3.7070462713891224e+16,3.947339532710247e+16,32560259931737.62,576008662848.108,2488633213693.6357,43911794221657.15,809081778793499.1,1514314138387808.0
537.6369923749302,3.7211166160173336e+16,3.9860906236325704e+16,32683844515242.66,630563311096.1302,2724335364230.1274,48314881954976.29,890192810671859.9,1675193640334969.5
592.4006916124232,3.731386885425424e+16,4.023207763906661e+16,32774051755637.05,688745012000.686,2975708180955.9365,53065665546423.09,977711813025905.9,1850992801291394.2
652.6407607736655,3.738676931548915e+16,4.059727040338123e+16,32838082689433.254,750733935363.3577,3243530089889.805,58192043513447.35,1072152704857979.1,2043323992805918.2
718.9048368510321,3.743713224240758e+16,4.0966131586504216e+16,32882318146598.832,816700641140.4734,3528537997661.1694,63723545341088.34,1174059338351998.8,2253988903618237.5
791.7953205361354,3.747109091377863e+16,4.134738802591454e+16,32912145192838.645,886793746684.3037,3831374008702.772,69690674995164.22,1283993445240444.0,2484982678952063.0
871.9748525897489,3.749358330922427e+16,4.174877378206124e+16,32931901022235.152,961126891406.6768,4152529106919.1396,76124183483254.03,1402521274973863.8,2738499457359222.0
960.1723378487239,3.750840173829951e+16,4.2177073812363016e+16,32944916548179.81,1039765760952.4633,4492287094335.186,83054312007700.22,1530199684685445.8,3016941107966955.0
1057.1895716335964,3.751832401323443e+16,4.263825368346556e+16,32953631616836.195,1122715742808.9883,4850671257667.833,90510029908328.05,1667562123533304.5,3322930498172205.5
1163.9085287969563,3.752529008212226e+16,4.313763995652858e+16,32959750150034.97,1209910559233.341,5227395257173.499,98518270296824.6,1815104563990864.8,3659329984152115.0
1281.299381676652,3.753059100309021e+16,4.368011785208323e+16,32964406127665.613,1301202042997.9558,5621818952811.957,107103147102126.62,1973271081219090.0,4029265193548249.0
1410.4293198443174,3.753504503615668e+16,4.427032001184609e+16,32968318255094.76,1396351146754.18,6032909560038.489,116285125077514.3,2142438558744333.8,4436153712905699.0
1552.4722518287492,3.753914559072837e+16,4.491278988175967e+16,32971919910441.992,1495020328909.793,6459208752620.987,126080111597415.34,2322899948984366.5,4883738081457520.0
1708.7194770116243,3.7543175155520664e+16,4.561211279340766e+16,32975459213071.727,1596767618021.5723,6898807017287.416,136498445515325.58,2514845635666051.0,5376122522857120.0
1880.5914247127869,3.7547286414925816e+16,4.637301536635404e+16,32979070270833.773,1701042874818.1858,7349327503042.191,147543771729141.66,2718342690946262.5,5917813048104171.0
2069.6505671840655,3.755155589704227e+16,4.720043861414779e+16,32982820300937.543,1807186985906.9866,7807922536624.515,159211807479484.75,2933312139445478.0,6513760840357148.0
2277.615623902472,3.755601700038136e+16,4.8099592275690344e+16,32986738638421.62,1914434880463.009,8271286654959.372,171489025311395.34,3159504688992783.5,7169409100830939.0
2506.3771862927197,3.756067891281029e+16,4.90759981369544e+16,32990833353299.355,2021923318333.6824,8735690252316.45,184351296612235.3,3396475737114068.5,7890743743493815.0
2758.0149049219917,3.756553666185133e+16,5.0135529327533384e+16,32995100078075.934,2128704326561.3057,9197037631293.412,197762558220767.75,3643560804382549.0,8684348461042913.0
3034.816395414191,3.757057602698301e+16,5.1284451492687736e+16,32999526322387.766,2233764943803.1465,9650952306967.531,211673582776772.88,3899852880503889.5,9557464758850830.0
3339.2980349556105,3.757577572069795e+16,5.252947079519001e+16,33004093388699.16,2336053559654.809,10092890804319.908,226020951087440.28,4164183493405188.0,1.0518057592246792e+16
3674.227838451172,3.758110826749284e+16,5.38777930628756e+16,33008777144349.035,2434512609773.2427,10518283916019.18,240726341016707.22,4435109610657241.5,1.1574887270038606e+16
4042.6506222962894,3.75865403745102e+16,5.5337198047166264e+16,33013548347098.195,2528116725140.4087,10922701525112.504,255696260534405.2,4710908724506649.0,1.2737588321017594e+16
4447.915684525919,3.75920332153139e+16,5.691613257392909e+16,33018372894378.465,2615914675801.4175,11302033822221.234,270822359927606.6,4989584607496234.0,1.4016756069798852e+16
4893.707252978511,3.759754284777336e+16,5.86238261961492e+16,33023212190334.92,2697072667665.351,11652678369303.041,285982456328375.4,5268886191576271.0,1.542404173724389e+16
5384.077978276362,3.76030208840116e+16,6.047043264874383e+16,33028023734263.824,2770915850077.1587,11971719433861.023,301042388750816.7,5546341747924427.0,1.6972256969038764e+16
5923.485776103998,3.760841547502302e+16,6.24671998344137e+16,33032761985435.36,2836964403350.507,12257083906770.55,315858789922907.3,5819309956802713.0,1.8675488802369504e+16
6516.834353714399,3.761367263576963e+16,6.462667014632768e+16,33037379526970.582,2894960441073.5933,12507657536216.604,330282809311529.6,6085048500812699.0,2.05492262029296e+16
7169.5177890858395,3.7618737903344536e+16,6.696291161662511e+16,33041828522262.305,2944882306240.102,12723346697399.271,344164748591655.9,6340799467288945.0,2.2610499439874084e+16
7887.469567994424,3.762355828488273e+16,6.949177869023102e+16,33046062425890.363,2986943734644.664,12905074781732.002,357359477983970.7,6583889135438941.0,2.487803371098307e+16
8677.216524793868,3.7628084412299256e+16,7.223119946286902e+16,33050037876201.566,3021576785495.418,13054708452390.723,369732394920549.44,6811837753291698.0,2.7372418579243384e+16
9545.938177273256,3.763227278014726e+16,7.520148418638e+16,33053716660895.316,3049399263848.2744,13174916896407.242,381165575693944.6,7022472868284736.0,3.01162949294329e+16
10501.531995000581,3.7636087905892424e+16,7.842564802571048e+16,33057067614465.47,3071169329009.947,13268975712909.426,391563671261729.25,7214037942697336.0,3.313456129320263e+16
11552.68519450064,3.7639504225440664e+16,8.192973981989432e+16,33060068283106.418,3087731755320.423,13340534734261.652,400859029221314.6,7385286711238286.0,3.645460151922135e+16
12708.953713950705,3.7642507528236664e+16,8.574316835437331e+16,33062706185208.633,3099961521915.7344,13393374305653.598,409015505511898.25,7535553398230985.0,4.010653588038099e+16
13980.849085345777,3.764509575228891e+16,8.989901874879157e+16,33064979509655.617,3108710760474.5312,13431176071468.307,416030479387735.3,7664789832912101.0,4.412349781786136e+16
15379.933993880357,3.764727900398536e+16,9.443435421330354e+16,33066897133228.582,3114764450639.803,13457331554844.773,421934713662170.56,7773562867995143.0,4.85419386345222e+16
16918.927393268394,3.764907873989794e+16,9.939050259168146e+16,33068477901958.35,3118808710658.8936,13474805154187.346,426789906272299.5,7863009265900642.0,5.340196258784376e+16
18611.820132595236,3.765052614127266e+16,1.0481333243473424e+17,33069749203384.5,3121413397678.139,13486058964379.486,430684039431414.5,7934750010991866.0,5.874769502147295e+16
20474.00214585476,3.765165981374092e+16,1.1075352914427835e+17,33070744946134.707,3123028471072.306,13493037061541.766,433724912713136.25,7990771165887365.0,6.462768644145818e+16
22522.40236044024,3.765252303746321e+16,1.172668870561375e+17,33071503144633.242,3123991669813.5146,13497198670829.314,436032497612467.3,8033283017624991.0,7.109535580995173e+16
24775.642596484264,3.76531608576035e+16,1.2441463717849179e+17,33072063363566.344,3124543880416.689,13499584562278.793,437730921787841.3,8064572403285908.0,7.820947680400834e+16
27254.206856132692,3.765361732626243e+16,1.3226383183663381e+17,33072464295379.13,3124848275038.614,13500899736494.799,438940939689297.1,8086863997997303.0,8.603471136037794e+16
29980.627541745966,3.765393317737685e+16,1.4088780630022536e+17,33072741718061.688,3125009785399.5796,13501597561965.086,439773654071382.25,8102204649309489.0,9.464219547040238e+16
32979.69029592056,3.765414413953763e+16,1.5036673379793846e+17,33072927013240.0,3125092468657.5713,13501954805002.012,440326032955150.3,8112380789946237.0,1.041101828612126e+17
36278.65932551262,3.7654279983511624e+16,1.607882849910891e+17,33073046329582.266,3125133467755.7275,13502131946286.441,440678463335009.8,8118873373744175.0,1.1452475285875466e+17
39907.525258063884,3.765436428481729e+16,1.722483972507479e+17,33073120374261.28,3125153271440.8667,13502217510117.244,440894261916618.75,8122848865671063.0,1.2598058934718714e+17
43899.277783870275,3.7654414781940824e+16,1.848521543206911e+17,33073164727587.297,3125162664047.9053,13502258091650.338,441020793239236.3,8125179843968842.0,1.3858183831605893e+17
48290.20556225731,3.765444414729029e+16,1.9871477420431053e+17,33073190520163.832,3125167088500.7173,13502268621357.207,441091678886393.44,8126485702472491.0,1.524430520494316e+17
53120.22611848305,3.765446096793973e+16,2.1396270292410083e+17,33073205294307.285,3125168484543.5566,13502274652836.857,441129539311055.4,8127183164322974.0,1.676902286040953e+17
58433.24873033136,3.765447075495167e+16,2.307348139118951e+17,33073213890569.86,3125169296824.205,13502278162223.566,441148778854222.25,8127537590622409.0,1.844619561261174e+17
64277.57360336451,3.765447687318434e+16,2.4918371519275325e+17,33073219264419.906,3125169804611.677,13502280356074.422,441158065724210.0,8127708668760875.0,2.0291067091565853e+17
70706.33096370097,3.765448124015498e+16,2.694771749402272e+17,33073223100077.492,3125170167051.782,13502281921964.87,441162320905019.8,8127787053516108.0,2.232040436504625e+17
77777.96406007107,3.765448491433333e+16,2.9179967256416454e+17,33073226327232.125,3125170471993.062,13502283239436.682,441164175796757.7,8127821220436232.0,2.4552650157355958e+17
85556.76046607818,3.765448844565621e+16,3.1635409339669754e+17,33073229428912.14,3125170765077.9478,13502284505684.045,441164953259168.3,8127835539022823.0,2.7008090377405888e+17
94113.436512686,3.7654492161605224e+16,3.433635777578998e+17,33073232692755.383,3125171073486.0156,13502285838133.81,441164996769199.8,8127836336621420.0,2.9709038357329914e+17
103525.78016395462,3.7654496080014504e+16,3.7307357143852736e+17,33073236134426.445,3125171398697.4365,13502287243180.99,441165042649839.44,8127837177676376.0,3.268003724434099e+17
113879.3581803501,3.765450037555057e+16,4.057540346660509e+17,33073239907340.492,3125171755208.765,13502288783456.727,441165092946252.4,8127838099678497.0,3.594808303974304e+17
125268.29399838512,3.7654505101150696e+16,4.4170190307507526e+17,33073244057994.477,3125172147413.6265,13502290477943.098,441165148278287.2,8127839113990472.0,3.9542869300497216e+17
137796.12339822366,3.765451029581221e+16,4.8124378298111174e+17,33073248620640.84,3125172578548.5825,13502292340623.527,441165209102556.3,8127840228982631.0,4.349705665336754e+17
151576.73573804603,3.765451601117847e+16,5.2473891254542355e+17,33073253640639.617,3125173052899.834,13502294390016.195,441165276023756.44,8127841455739864.0,4.7846568908139866e+17
166735.40931185064,3.765452229804786e+16,5.7258241969389856e+17,33073259162608.992,3125173574683.4287,13502296644336.09,441165349636684.3,8127842805165632.0,5.2630918851166586e+17
183409.95024303574,3.765452921343574e+16,6.252089037907258e+17,33073265236627.37,3125174148631.4194,13502299124027.602,441165430608933.06,8127844289497845.0,5.78935664118673e+17
201751.94526733932,3.765453682014836e+16,6.830963740868457e+17,33073271917859.445,3125174779956.4146,13502301851611.473,441165519675899.3,8127845922217281.0,6.368231250762554e+17
221928.13979407327,3.765454518727201e+16,7.467705802008367e+17,33073279266986.266,3125175474392.3374,13502304851860.463,441165617646516.1,8127847718152852.0,7.004973209181709e+17
244121.9537734806,3.765455439079334e+16,8.168097734436445e+17,33073287350749.355,3125176238245.732,13502308152021.459,441165725410510.25,8127849693614385.0,7.705365028620878e+17
268535.1491508287,3.76545645142859e+16,8.938499416081272e+17,33073296242554.184,3125177078452.845,13502311782062.027,441165843946444.0,8127851866540321.0,8.475766585982522e+17
295389.6640659116,3.765457564966696e+16,9.785905640100517e+17,33073306023134.805,3125178002642.428,13502315774941.408,441165974330574.6,8127854256659960.0,9.32317267329593e+17
324929.6304725028,3.7654587898028536e+16,1.0718009381287459e+18,33073316781283.773,3125179019204.6953,13502320166908.814,441166117746590.06,8127856885671872.0,1.0255276264113324e+18
357423.5935197531,3.765460137055177e+16,1.1743271341884027e+18,33073328614655.008,3125180137367.204,13502324997831.025,441166275496308.94,8127859777440141.0,1.1280538059311672e+18
393166.95287172846,3.7654616189511016e+16,1.2870996394835046e+18,33073341630646.625,3125181367278.212,13502330311552.82,441166449011441.1,8127862958210055.0,1.2408262930334633e+18
432484.6481589014,3.765463248937863e+16,1.4111417602246464e+18,33073355947369.83,3125182720098.363,13502336156292.646,441166639866524.7,8127866456844947.0,1.36486839376373e+18
475734.11297479155,3.765465041803817e+16,1.5475788552075868e+18,33073371694715.926,3125184208101.355,13502342585078.008,441166849793124.56,8127870305086822.0,1.5013054667361797e+18
