t(s),Total solute volume 1,Total retention volume 1,Total 1 volume 1,Total 2 volume 1,Total 3 volume 1,Total 4 volume 1,Total 5 volume 1,Total 6 volume 1
1.0,2118353935778232.0,2119332771492803.2,978835714570.4708,0.0,0.0,0.0,0.0,0.0
2.1,3255673304693573.5,3257178854203022.5,1504361109430.4297,609449.8809569951,2223662.456973815,28941966.02865324,452306327.48429406,704318616.0100096
3.3100000000000005,4171266904440398.0,4173197534384766.0,1927432852848.5693,1639231.2425907718,5980962.334302842,77856715.55447634,1216737372.9078865,1894877232.9917667
4.641000000000001,4989947763772937.0,4992259515138853.0,2305723766054.4854,3089714.2265574103,11273250.166289061,146773234.50431976,2293746855.2613616,3572716809.1403527
6.105100000000002,5758285034512193.0,5760955538410784.0,2660752230182.776,4997175.269731266,18232885.56630679,237428709.22018984,3710483582.094832,5780526042.575478
7.7156100000000025,6499698165560175.0,6502715983450327.0,3003339757057.8374,7416755.253252507,27061057.66821334,352460751.93421143,5508167488.496316,8583027049.37979
9.487171000000004,7228105565062965.0,7231465828360212.0,3339917677274.7437,10418656.112890761,38013907.936468706,495228378.4667408,7739292039.623106,12062666985.88884
11.435888100000005,7952754833743046.0,7956457114567733.0,3674759064051.113,14087670.642067133,51400814.58119136,669791621.6175448,10467305416.284796,16319175111.70184
13.579476910000007,8680313567591862.0,8684360717391587.0,4010944838168.0234,18524007.31018488,67587402.00241177,880953145.7225301,13767260174.440596,21470636803.965763
15.937424601000009,9415895758140340.0,9420293223719200.0,4350838040517.627,23844796.841788094,87001037.71325147,1134332894.14797,17726978444.62075,27655381160.392105
18.53116706110001,1.0163601751162214e+16,1.016835714423882e+16,4696333332784.857,30186033.627588913,110137915.78150673,1436464222.2865498,22448551998.120014,35034403635.98541
21.384283767210015,1.0926801589800684e+16,1.0931924392132256e+16,5048987922823.303,37704801.21707631,137571176.75354487,1794904569.7020216,28050068523.24311,43794159656.667305
24.522712143931017,1.1708262498507996e+16,1.1713763830906302e+16,5410080471615.364,46581634.32027067,169959525.62406525,2218353912.2923036,34667458547.070564,54149573086.38006
27.97498335832412,1.251016970780195e+16,1.2516062113772256e+16,5780620715851.628,57022836.79813342,208055689.2045225,2716772704.745956,42456333684.06642,66347069514.01233
31.772481694156536,1.3334070177696504e+16,1.3340367385684048e+16,6161323464040.153,69262534.46003069,252713905.88892192,3301489120.5063024,51593657276.34516,80667400655.53627
35.949729863572195,1.4180763315517914e+16,1.4187479954423888e+16,6552558100137.402,83564212.42987819,304895534.80003744,3985284035.769875,62279067294.48227,97427994752.74522
40.544702849929415,1.5050162925277848e+16,1.505731417863812e+16,6954284794054.236,100221481.76184484,365671852.7619428,4782441972.401407,74735667770.91939,116984563103.79129
45.59917313492236,1.5941155531727318e+16,1.5948756727145086e+16,7365989037006.519,119557843.19906856,436223192.2391154,5708757317.54041,89210122274.70718,139731720131.85654
51.1590904484146,1.6851479317291732e+16,1.6859545458588588e+16,7786625701538.566,141925264.18948758,517833749.3220403,6781487420.086228,105971918606.25317,166102430272.74835
57.27499949325607,1.7777644410932066e+16,1.7786189669864524e+16,8214582209181.319,167701450.73652247,611881629.6926781,8019247258.284111,125311722254.43658,196566170680.32538
64.00249944258168,1.8714909730985428e+16,1.8723946922346508e+16,8647667830210.158,197285770.8270433,719823974.7521732,9441843921.038551,147538791623.40787,231625785559.33942
71.40274938683986,1.965732527481984e+16,1.9666865342958984e+16,9083133224643.846,231093867.9280439,843177308.3650807,11070053002.791712,172977488299.2719,271813102032.97928
79.54302432552385,2.0597842961319788e+16,2.060789450783281e+16,9517721659689.566,269551094.4439175,983493578.1589589,12925343330.405891,201962983030.61984,317683482254.1512
88.49732675807624,2.1528494664174628e+16,2.153906354637778e+16,9947751274273.123,313085003.62964165,1142332761.566969,15029561594.11462,234836338438.27292,369809611004.5253
98.34705943388387,2.2440632989035268e+16,2.2451722017536644e+16,10369226335838.701,362117271.4074864,1321233391.8858202,17404594808.928516,271939248433.92862,428774971651.6913
109.18176537727226,2.3325228065971944e+16,2.3336836827607964e+16,10777974380319.72,417055576.98569363,1521682934.0887942,20072036133.551186,313608832627.08215,495167648387.3432
121.09994191499949,2.4173211256499444e+16,2.418533608610449e+16,11169805030068.26,478286140.25548166,1745090557.0206385,23052887857.427235,360173012869.17786,569575297534.0189
134.20993610649944,2.4975853430051572e+16,2.4988487550556884e+16,11540684785387.947,546167765.6196114,1992765401.998385,26367343003.326767,411947117831.1612,652582325886.7192
148.6309297171494,2.572516104283787e+16,2.5738294887395376e+16,11886920042051.783,621028332.4076627,2265903778.037402,30034691940.022545,469232438341.7425,744770453050.2786
164.49402268886433,2.6414268011855708e+16,2.64278897334882e+16,12205338165850.445,703164649.3648275,2565588631.2079988,34073400192.33245,532317452765.0933,846723860387.8105
181.94342495775078,2.703779631559645e+16,2.7051892479065188e+16,12493454116557.67,792846405.7726371,2892803960.898602,38501395895.00632,601482320933.0543,959039985027.2927
201.13776745352587,2.7592154792464416e+16,2.7606711230001824e+16,12749608514686.816,890324572.7242304,3248465472.8176403,43336588432.3536,677006981676.7579,1082346662594.3264
222.25154419887846,2.80757452617226e+16,2.8090748060060092e+16,12973062884441.764,995844035.6447867,3633466670.0051665,48597613575.74261,759182780285.0103,1217325748525.8845
245.47669861876633,2.8489049066903564e+16,2.8504485660005852e+16,13164039644003.033,1109659520.3717268,4048736996.2193675,54304779035.46421,848328522948.8136,1364761759765.41
271.024368480643,2.8834576151236784e+16,2.8850436356251772e+16,13323698570546.086,1232053100.6206975,4495305567.394888,60481060948.77161,944800676946.6682,1525497347826.665
299.1268053287073,2.9116671800778844e+16,2.9132948947679252e+16,13454047507862.223,1363350916.4565282,4974362394.60472,67153232343.717285,1049019158433.9836,1700589288438.1472
330.03948586157804,2.9341193246991676e+16,2.935788512192259e+16,13557792928232.39,1503936290.8797061,5487306088.489483,74352738023.09927,1161475416920.732,1891262605394.3074
364.0434344477359,2.951508454593401e+16,2.9532194203410556e+16,13638143496649.807,1654256454.6942718,6035768433.928722,82116376766.24342,1282744480130.381,2098963098119.195
401.44777789250946,2.964589283800859e+16,2.96634292205653e+16,13698586547278.312,1814820564.823796,6621607159.28697,90486598728.47466,1413489587396.6392,2325383395533.257
442.5925556817604,2.9741277448449084e+16,2.975925579569586e+16,13742661251811.412,1986187670.7563276,7246862030.377262,99511359462.7678,1554459906288.716,2572481679505.63
487.8518112499365,2.9808563816384336e+16,2.9827005869148308e+16,13773752501930.184,2168944567.70402,7913674045.046279,109243516254.67542,1706481108454.0393,2842493018731.794
537.6369923749302,2.985438611223699e+16,2.987332013997732e+16,13794925772288.31,2363674818.510883,8624172405.986944,119739813452.12234,1870439531998.0588,3137934775318.608
592.4006916124232,2.988444701548281e+16,2.990390771269992e+16,13808816120192.41,2570921321.145307,9380337943.89095,131059553341.51233,2047261435822.2705,3461608848582.5034
652.6407607736655,2.9903403673454412e+16,2.9923431980558744e+16,13817575490197.209,2791145385.537198,10183853804.51194,143263075000.5633,2237889255339.5254,3816604284630.175
718.9048368510321,2.9914869574019612e+16,2.993551247890943e+16,13822873579428.555,3024685243.232772,11035954066.2321,156410158788.41385,2443256694843.205,4206303817540.2134
791.7953205361354,2.9921507009539864e+16,2.9942817378748188e+16,13825940562736.969,3271716316.805889,11937278778.217466,170558440958.48535,2664263974400.58,4634397235162.279
871.9748525897489,2.9925176723061348e+16,2.9947213198187948e+16,13827636240244.027,3532214666.801945,12887740592.078924,185761872036.19223,2901753755943.7812,5104903303128.594
960.1723378487239,2.9927110892766036e+16,2.994993787239932e+16,13828529968880.809,3805924143.8277693,13886404912.111853,202069199701.063,3156487447820.8057,5622200687869.129
1057.1895716335964,2.9928081461400996e+16,2.9951769174186916e+16,13828978442962.945,4092327203.5809298,14931383410.143692,219522417017.8448,3429120964597.1353,6191067250739.537
1163.9085287969563,2.992854523182586e+16,2.9953169895255268e+16,13829192739003.56,4390619262.368737,16019740458.252098,238155099595.24725,3720178749553.734,6816726481586.6045
1281.299381676652,2.9928757104964724e+16,2.9954401158008164e+16,13829290639974.26,4699686874.121633,17147413504.669527,257990562475.98752,4030024980198.8096,7504899760406.32
1410.4293198443174,2.9928850971965056e+16,2.99556033677815e+16,13829334013431.139,5018090743.273355,18309151093.96914,279039794368.07355,4358831295596.203,8261863471196.607
1552.4722518287492,2.9928892915261236e+16,2.9956849461870416e+16,13829353394318.36,5344055424.142804,19498475283.82835,301299164907.5876,4706540978791.759,9094510540475.596
1708.7194770116243,2.9928913522805004e+16,2.9958177263517108e+16,13829362916519.014,5675468276.6757145,20707677834.833267,324747942123.5711,5072830175220.012,10010416532104.365
1880.5914247127869,2.9928926044068304e+16,2.995960767443737e+16,13829368702263.418,6009890688.36811,21927861155.048454,349345697222.45087,5457067351717.261,11017910866024.066
2069.6505671840655,2.992893583253279e+16,2.9961154155861532e+16,13829373225253.836,6344584637.606178,23149035219.735638,375029710664.2536,5858272776331.538,12126153996630.236
2277.615623902472,2.9928944891597716e+16,2.996282732022194e+16,13829377411207.99,6676557316.528505,24360280383.57873,401712527854.9972,6275080335691.457,13345221511814.02
2506.3771862927197,2.992895389983851e+16,2.9964637014537816e+16,13829381573677.7,7002625726.403263,25549983065.21271,429279845510.87885,6705704518007.709,14686196153271.533
2758.0149049219917,2.9928963045500736e+16,2.99665932305279e+16,13829385799646.182,7319501891.88245,26706146662.388622,457588940490.97614,7147915870028.569,16161268768389.412
3034.816395414191,2.992897234435762e+16,2.996870652087361e+16,13829390096401.826,7623897620.833713,27816773781.70793,486467879232.7642,7599028647729.795,17783849221293.566
3339.2980349556105,2.9928981751730384e+16,2.9970988237875564e+16,13829394443299.9,7912645619.979082,28870308144.63521,515715763318.39185,8055904652256.052,19568688332553.297
3674.227838451172,2.9928991199343376e+16,2.9973450730631384e+16,13829398808791.814,8182831397.323137,29856115850.516438,545104268867.88043,8514977276519.188,21532011986580.523
4042.6506222962894,2.9929000607207636e+16,2.9976107556094164e+16,13829403155916.947,8431927974.43388,30764976891.721848,574380717045.0516,8972299469044.41,23691668639617.125
4447.915684525919,2.9929009888174988e+16,2.9978973726063348e+16,13829407444406.348,8657923332.635914,31589550157.548847,603272862471.5992,9423618532957.36,26067291574979.754
4893.707252978511,2.99290189508308e+16,2.9982065998863812e+16,13829411632019.809,8859429143.837036,32324770152.7129,631495499373.4736,9864479319445.184,28680477382890.71
5384.077978276362,2.992902770237132e+16,2.9985403218475372e+16,13829415675875.07,9035759127.180374,32968132891.763264,658758858178.4603,10290355389535.715,31554982288459.68
5923.485776103998,2.992903605184487e+16,2.998900670001382e+16,13829419533945.834,9186966695.939949,33519833258.711914,684778599131.8647,10696805122608.771,34716938113256.625
6516.834353714399,2.9929043913740856e+16,2.9992900656984604e+16,13829423166719.9,9313834602.194717,33982727224.37328,709287012234.8749,11079646668652.41,38195089834322.74
7169.5177890858395,2.9929051211756428e+16,2.9997112662272636e+16,13829426538939.818,9417813944.334513,34362109307.46004,732044820976.9019,11435142332268.75,42021056900786.3
7887.469567994424,2.9929057882491336e+16,3.000167413165994e+16,13829429621309.836,9500915702.72442,34665316828.530396,752852786795.0511,11760179843862.508,46229620684176.21
8677.216524793868,2.9929063878764612e+16,3.0006620816297124e+16,13829432392029.082,9565564077.565641,34901194794.29917,771562156026.0623,12052435549597.521,50859040675969.695
9545.938177273256,2.9929069172229132e+16,3.001199328963452e+16,13829434837998.951,9614426233.35743,35079474698.36189,788082919912.9269,12310503439456.834,55951402307028.45
10501.531995000581,2.9929073754970964e+16,3.0017837415456564e+16,13829436955562.672,9650236486.374168,35210133046.511925,802388907492.5112,12533974702289.674,61552999550725.88
11552.68519450064,2.9929077639846844e+16,3.002420478728591e+16,13829438750661.03,9675633641.474403,35302797859.06183,814518926220.4225,12723455543257.104,67714755787415.4
12708.953713950705,2.99290808594221e+16,3.003115313560106e+16,13829440238341.553,9693027764.411243,35366262572.367546,824573509978.3193,12880516384978.047,74492686755332.98
13980.849085345777,2.9929083463518252e+16,3.0038746707610724e+16,13829441441625.467,9704507541.290098,35408148027.78437,832707302928.3528,13007572897023.008,81948409795320.47
15379.933993880357,2.9929085515552812e+16,3.0047056633764376e+16,13829442389816.316,9711792578.231853,35434728430.759056,839117641782.1875,13107707641528.574,90149704017446.39
16918.927393268394,2.992908708801358e+16,3.005616130429285e+16,13829443116408.875,9716228006.343472,35450911666.30607,844030411708.2787,13184449130816.092,99171126480579.97
18611.820132595236,2.9929088257536036e+16,3.0066146786184404e+16,13829443656814.209,9718813069.47698,35460343605.088615,847684642496.6329,13241531206814.936,109094689985492.08
20474.00214585476,2.992908910010761e+16,3.007710731460444e+16,13829444046144.236,9720252058.941383,35465593945.26131,850317491996.0905,13282658470021.494,120010608642700.81
22522.40236044024,2.9929089686897916e+16,3.0089145891951656e+16,13829444317284.492,9721015387.048962,35468379047.17766,852151179573.5918,13311302169421.545,132018117993077.8
24775.642596484264,2.992909008114203e+16,3.0102375021204988e+16,13829444499454.32,9721400377.99861,35468379514.38566,853383086309.8271,13330545559449.959,145226377137819.62
27254.206856132692,2.9929090336034652e+16,3.011691760047019e+16,13829444617233.428,9721400460.791332,35468379816.45177,854179696573.4924,13342989262446.951,159755461078986.16
29980.627541745966,2.9929090494336588e+16,3.013290797298927e+16,13829444690380.549,9721400512.21002,35468380004.05098,854674433180.4518,13350717452108.834,175737452296552.2
32979.69029592056,2.9929090588557572e+16,3.0150493150227404e+16,13829444733917.607,9721400542.814322,35468380115.70967,854968870461.8457,13355316802644.758,193317641482144.44
36278.65932551262,2.9929090642182028e+16,3.0169834195423412e+16,13829444758696.031,9721400560.232317,35468380179.25852,855136412146.3369,13357933940344.586,212655848349470.72
39907.525258063884,2.9929090671302264e+16,3.019110776231791e+16,13829444772151.69,9721400569.690971,35468380213.76806,855227357297.2135,13359354577691.932,233927874527735.25
43899.277783870275,2.9929090687127944e+16,3.0214507739350388e+16,13829444779464.346,9721400574.831402,35468380232.52267,855227357749.4252,13360088552124.045,257327101752295.44
48290.20556225731,2.992909069947673e+16,3.0240246899846876e+16,13829444785170.4,9721400578.842468,35468380247.15692,855227358102.2393,13360088557633.246,283066249888388.06
53120.22611848305,2.9929090699729004e+16,3.0268559960767652e+16,13829444785286.945,9721400578.92437,35468380247.45575,855227358109.4438,13360088557745.682,311379310556700.06
58433.24873033136,2.992909069976551e+16,3.0299704324913796e+16,13829444785303.826,9721400578.936258,35468380247.499084,855227358110.4877,13360088557761.992,342523674666241.3
64277.57360336451,2.992909069980165e+16,3.0333963122296092e+16,13829444785320.555,9721400578.947996,35468380247.54194,855227358111.5232,13360088557778.105,376782472012315.06
70706.33096370097,2.9929090699841396e+16,3.037164779557549e+16,13829444785338.912,9721400578.960894,35468380247.58904,855227358112.6575,13360088557795.85,414467145251994.94
77777.96406007107,2.9929090699885124e+16,3.0413100931535252e+16,13829444785359.13,9721400578.975096,35468380247.64085,855227358113.9058,13360088557815.352,455920281168030.2
85556.76046607818,2.9929090699933236e+16,3.045869937546742e+16,13829444785381.33,9721400578.990723,35468380247.697876,855227358115.2798,13360088557836.773,501518725052060.3
94113.436512686,2.992909069998612e+16,3.0508857656988264e+16,13829444785405.768,9721400579.007887,35468380247.76051,855227358116.7909,13360088557860.348,551677006519927.94
103525.78016395462,2.99290907000443e+16,3.0564031758427584e+16,13829444785432.635,9721400579.026808,35468380247.829445,855227358118.4529,13360088557886.295,606851107901057.6
113879.3581803501,2.992909070010828e+16,3.0624723260048376e+16,13829444785462.213,9721400579.047577,35468380247.90527,855227358120.2815,13360088557914.812,667542609457738.6
125268.29399838512,2.9929090700178684e+16,3.069148389977647e+16,13829444785494.738,9721400579.070452,35468380247.988716,855227358122.2936,13360088557946.21,734303249115391.2
137796.12339822366,2.9929090700256176e+16,3.0764920588891228e+16,13829444785530.547,9721400579.0956,35468380248.08043,855227358124.5062,13360088557980.758,807739938152625.2
151576.73573804603,2.9929090700341264e+16,3.084570092926819e+16,13829444785569.889,9721400579.123272,35468380248.18144,855227358126.9376,13360088558018.727,888520278444309.5
166735.40931185064,2.9929090700434956e+16,3.09345592823272e+16,13829444785613.19,9721400579.153704,35468380248.29246,855227358129.6155,13360088558060.475,977378631409540.0
183409.95024303574,2.9929090700538124e+16,3.1032303444851824e+16,13829444785660.818,9721400579.187185,35468380248.414604,855227358132.5599,13360088558106.432,1075122793831005.1
201751.94526733932,2.992909070065144e+16,3.1139821992362144e+16,13829444785713.205,9721400579.224016,35468380248.548935,855227358135.7999,13360088558156.99,1182641341227872.2
221928.13979407327,2.9929090700776224e+16,3.125809235679084e+16,13829444785770.838,9721400579.264538,35468380248.69678,855227358139.3645,13360088558212.598,1300911705531678.2
244121.9537734806,2.992909070091329e+16,3.138818971188466e+16,13829444785834.215,9721400579.309078,35468380248.85931,855227358143.283,13360088558273.76,1431009060488255.8
268535.1491508287,2.9929090701064228e+16,3.153129674709707e+16,13829444785903.943,9721400579.358093,35468380249.0382,855227358147.5947,13360088558341.045,1574116095549603.5
295389.6640659116,2.9929090701230212e+16,3.168871441880774e+16,13829444785980.625,9721400579.412018,35468380249.23491,855227358152.3367,13360088558415.076,1731533767094145.0
324929.6304725028,2.9929090701412828e+16,3.1861873776591836e+16,13829444786065.012,9721400579.471323,35468380249.45129,855227358157.5524,13360088558496.479,1904693124695418.8
357423.5935197531,2.9929090701613636e+16,3.2052348972026068e+16,13829444786157.818,9721400579.536549,35468380249.68927,855227358163.2928,13360088558586.027,2095168319928623.5
393166.95287172846,2.992909070183461e+16,3.2261871568268692e+16,13829444786259.932,9721400579.608324,35468380249.95117,855227358169.6036,13360088558684.525,2304690915950105.0
432484.6481589014,2.9929090702077624e+16,3.2492346280466228e+16,13829444786372.207,9721400579.687262,35468380250.23915,855227358176.5491,13360088558792.863,2535165627904416.0
475734.11297479155,2.9929090702344976e+16,3.2745868290043776e+16,13829444786495.715,9721400579.774076,35468380250.55593,855227358184.1865,13360088558912.08,2788687637214401.5
523308.52427227073,2.9929090702639016e+16,3.3024742290233136e+16,13829444786631.61,9721400579.86961,35468380250.90446,855227358192.588,13360088559043.178,3067561637109435.0
575640.3766994978,2.9929090702962484e+16,3.333150343592313e+16,13829444786781.062,9721400579.974695,35468380251.28783,855227358201.8297,13360088559187.395,3374322782475598.5
