t(s),Total solute volume 1,Total retention volume 1,Total 1 volume 1,Total 2 volume 1,Total 3 volume 1,Total 4 volume 1,Total 5 volume 1,Total 6 volume 1
1.0,1913856954139102.2,1914366347166172.0,509393027068.43866,0.0,0.0,0.0,0.0,0.0
2.1,2941386153015071.5,2942172218596485.5,782880657144.5715,2927922.9061225196,9239474.642461238,96734105.57538761,1308057902.3161747,1767964867.8204906
3.3100000000000005,3768591779553747.5,3769603397981585.5,1003050075860.4989,7874705.617598913,24849746.330050424,260213022.30813593,3518644483.869927,4756770020.263391
4.641000000000001,4508238975031751.0,4509455044062253.0,1199914903627.527,14841645.970803063,46834910.60429797,490522605.72078156,6632921234.516165,8969006465.072464
6.105100000000002,5202401050146541.0,5203811857778158.0,1384673391540.7212,24002413.27261814,75743005.51707642,793455130.1252775,10729212415.450525,14511827103.338846
7.7156100000000025,5872235044665176.0,5873836801387765.0,1562956706712.9646,35621103.903833315,112407424.4988693,1177807690.7152712,15926473437.064777,21547706212.3436
9.487171000000004,6530310188497159.0,6532102821246622.0,1738110280957.6687,50033871.55618578,157888947.9728598,1654781284.189247,22376165064.129135,30283599318.456802
11.435888100000005,7184965150830450.0,7186951254424302.0,1912353538146.59,67646487.18632641,213468043.4144133,2237907483.8388658,30261261379.73889,40969772296.78725
13.579476910000007,7842183000848691.0,7844367292874728.0,2087278934575.7053,88937928.53938267,280656192.534683,2943176197.8210745,39797976240.18901,53902344907.70982
15.937424601000009,8506493615465361.0,8508882639044227.0,2264092144197.338,114466860.98926885,361216342.3818679,3789261382.696335,51238813601.60544,69427676487.18065
18.53116706110001,9181423475874008.0,9184025431536124.0,2443731776662.507,144879535.34577918,457187827.84135866,4797796616.873862,64876291376.18963,87947730100.6321
21.384283767210015,9869701735295564.0,9872526377673830.0,2626924224403.5957,180918020.6767663,570912351.2926397,5993665474.201331,81046864887.48703,109925793114.50815
24.522712143931017,1.0573319709074626e+16,1.0576378268862146e+16,2814199496551.944,223427709.5220134,705057666.1804861,7405272335.323088,100134585532.13203,135891947737.78067
27.97498335832412,1.129349891670311e+16,1.1296804021840574e+16,3005882713002.693,273362985.2224171,862635460.8851813,9064757735.198267,122574009492.11865,166447658781.10855
31.772481694156536,1.2030607289127716e+16,1.2034172868590526e+16,3202071802133.2354,331789959.57420176,1047009997.6121625,11008122964.499222,148851879717.55954,202268858048.78427
35.949729863572195,1.2784056885691842e+16,1.2787898047130668e+16,3402610277120.3774,399885322.264919,1261894481.4998276,13275233029.7201,179507163699.68182,244106985181.97763
40.544702849929415,1.3552211894058424e+16,1.3556344773471392e+16,3607062749180.3496,478930583.48340464,1511332892.292992,15909674970.281298,215129136266.371,292787589050.4921
45.59917313492236,1.4332329972073386e+16,1.4336771559425794e+16,3814699315113.39,570301297.9466678,1799665979.2396798,18958458621.36989,256353333065.53494,349206278314.3124
51.1590904484146,1.5120552919287262e+16,1.5125320868208188e+16,4024493074449.363,675451189.5383152,2131481164.2334085,22471557787.739914,303855347472.2308,414322008880.61676
57.27499949325607,1.5911955295522616e+16,1.5917067727820038e+16,4235133069801.727,795891428.9863539,2511547149.786654,26501300741.26278,358342591678.0622,489147896641.56024
64.00249944258168,1.6700653207068762e+16,1.6706128524089728e+16,4445053241459.747,933165661.9966794,2944735117.07804,31101630302.52883,420544296115.2059,574739952308.4174
71.40274938683986,1.7479970838680758e+16,1.7485827552018844e+16,4652476751624.924,1088821775.4296649,3435929630.5488105,36327266654.13401,491200195518.56,672184372889.9254
79.54302432552385,1.824265942654666e+16,1.8248916020827044e+16,4855474266353.337,1264381859.590372,3989933850.1882315,42232821684.37577,571048561369.5643,782584315271.5598
88.49732675807624,1.8981161578820212e+16,1.8987836419671868e+16,5052034307219.759,1461312383.2096124,4611375415.077516,48871932422.9901,660814493900.7346,907047430289.5619
98.34705943388387,1.968791218523632e+16,1.9695023486190572e+16,5240143341541.304,1680997199.119223,5304621259.62734,56296501630.13353,761199663700.9602,1046675828928.3064
109.18176537727226,2.035566478065703e+16,2.0363230643355908e+16,5417872647423.587,1924716533.1284785,6073711310.624911,64556152322.34199,872874945789.3055,1202560525487.1135
121.09994191499949,2.0977828793002044e+16,2.0985867335254068e+16,5583468075793.235,2193635409.164511,6922321961.639195,73698014527.08629,996477544369.8041,1375782659995.0557
134.20993610649944,2.154879891649633e+16,2.155732850175212e+16,5735437716496.747,2488804834.126096,7853769812.313049,83766960368.40338,1132614176776.9858,1567423827511.425
148.6309297171494,2.2064253802333776e+16,2.2073293381466908e+16,5872631397907.004,2811178325.6147447,8871063824.006594,94806381608.17041,1281871588079.4512,1778587523334.4417
164.49402268886433,2.252139861422881e+16,2.2530968185711868e+16,5994305245584.859,3161644905.2479634,9977009434.598146,106859558086.73141,1444835050543.0642,2010432974483.0405
181.94342495775078,2.2919126066710604e+16,2.2929247254318316e+16,6100164544276.144,3541077517.634106,11174361350.822618,119971596240.98163,1622114566245.3674,2264221462153.4644
201.13776745352587,2.3258074362816844e+16,2.3268771101262664e+16,6190379158614.942,3950393160.971908,12466013298.027729,134191829705.4624,1814377313258.1538,2541373737789.464
222.25154419887846,2.3540568377072068e+16,2.35518676863698e+16,6265567878350.298,4390618210.014163,13855204155.003153,149576480822.33862,2022383616719.3303,2843535499462.0083
245.47669861876633,2.37704420409997e+16,2.378237486843191e+16,6326751144494.043,4862950016.722748,15345712374.316797,166191307272.31238,2247023287214.0747,3172653030899.7515
271.024368480643,2.3952753851291708e+16,2.39653559080388e+16,6375275328441.26,5368804492.517502,16942006001.853453,184113855395.68832,2489343712478.637,3531013040263.4883
299.1268053287073,2.409342131355317e+16,2.4106733943694636e+16,6412715436071.733,5909839561.486756,18649316891.580154,203435099175.90063,2750575673858.753,3921344775949.5073
330.03948586157804,2.419881180257211e+16,2.4212882767945944e+16,6440766210446.843,6487946349.088087,20473612758.243935,224260030617.2156,3032138797171.427,4346838776436.586
364.0434344477359,2.42753333896884e+16,2.429021757985925e+16,6461133226413.221,7105203669.378682,22421453592.05792,246707155395.99146,3335635381720.024,4811187749999.708
401.44777789250946,2.4329068781888644e+16,2.4344828821401176e+16,6475435459694.971,7763796114.737728,24499733179.790756,270906828388.94348,3662827899226.1445,5318605795920.628
442.5925556817604,2.4365487720002084e+16,2.438219446789794e+16,6485128738689.827,8465900889.256433,26715321992.38287,296998574330.5409,4015602774747.6113,5873836585226.853
487.8518112499365,2.438925964350223e+16,2.4406992595224216e+16,6491455883263.224,9213552321.179638,29074639635.82696,325127651356.5312,4395923932996.565,6482156062371.677
537.6369923749302,2.440417192116094e+16,2.4423019535856212e+16,6495424940989.91,10008494843.80343,31583190912.663292,355441171960.6543,4805780360946.6,7149376535584.382
592.4006916124232,2.4413143066726596e+16,2.443320305119641e+16,6497812704645.835,10852034789.067436,34245098136.67447,388084074385.80676,5247131647093.72,7881858910756.229
652.6407607736655,2.4418308420542908e+16,2.443968800336646e+16,6499187517262.737,11744898935.898634,37062654762.97916,423195146364.557,5721854226406.201,8686538379809.143
718.9048368510321,2.442114986715643e+16,2.444396609300357e+16,6499943797818.418,12687104342.906832,40035914627.27405,460903171861.07477,6231689285821.998,9570966572668.994
791.7953205361354,2.442264160202874e+16,2.4447021668396588e+16,6500340838562.652,13677840792.51835,43162320982.03643,501323140212.3627,6778191511048.901,10543370716230.6
871.9748525897489,2.442338941513699e+16,2.444947106407953e+16,6500539876795.626,14715365241.55565,46436373420.56911,544552362794.7244,7362676581188.72,11612728383076.1
960.1723378487239,2.442374905606731e+16,2.4451681024430096e+16,6500635598968.019,15796907561.634325,49849330427.50315,590666307015.9207,7986164840261.766,12788855378571.264
1057.1895716335964,2.442391748328405e+16,2.4453860008432344e+16,6500680427622.7,16918588476.0059,53388950416.77517,639713983216.0472,8649318923288.477,14082504275282.227
1163.9085287969563,2.4423997319060332e+16,2.4456122694081204e+16,6500701676744.525,18075353362.95856,57039282838.64809,691712792807.3352,9352374098017.521,15505471817073.734
1281.299381676652,2.4424038789427892e+16,2.4458531962342096e+16,6500712714513.977,19260928677.69085,60780530662.38762,746642844233.1465,10095061411582.637,17070714484556.62
1410.4293198443174,2.4424064935366276e+16,2.4461124150417476e+16,6500719673527.31,20467810378.818615,64589013853.92589,804440847768.2347,10876525143294.145,18792472562329.05
1552.4722518287492,2.442408563374882e+16,2.4463923118541548e+16,6500725182616.9795,21687295386.649548,68437268646.164566,864993799354.1117,11695237405496.307,20686403841243.41
1708.7194770116243,2.4424104815388364e+16,2.4466947524837936e+16,6500730288009.75,22909567436.44686,72294318460.1479,928132754393.7031,12548913961083.791,22769728560228.07
1880.5914247127869,2.442412390465281e+16,2.4470214340957376e+16,6500735368815.935,24123847561.221783,76126148773.63596,993627076376.7446,13434436461271.51,25061387401796.33
2069.6505671840655,2.442414333606997e+16,2.4473740473051348e+16,6500740540689.626,25318616745.13117,79896409734.02771,1061179624175.1344,14347787374919.709,27582214415126.44
2277.615623902472,2.442416317273148e+16,2.4477543522848692e+16,6500745820423.3125,26481913954.960655,83567356637.34074,1130423414129.9307,15284004858043.514,30355126754040.473
2506.3771862927197,2.4424183339527356e+16,2.448164221254966e+16,6500751188025.6875,27601706773.504337,87101019512.67085,1200920351730.967,16237165605537.398,33405333150739.805
2758.0149049219917,2.4424203704950136e+16,2.4486056718414484e+16,6500756608494.678,28666324376.705612,90460569441.25464,1272162660680.159,17200404173205.32,36760563128153.45
3034.816395414191,2.442422410864926e+16,2.4490809021300096e+16,6500762039151.299,29664934042.107605,93611822244.91653,1343577628340.9238,18165977139366.14,40451319087686.11
3339.2980349556105,2.442424437169057e+16,2.4495923321299596e+16,6500767432370.413,30588033536.349796,96524792283.44278,1414536217777.41,19125379545103.344,44511153587925.945
3674.227838451172,2.4424264302393236e+16,2.4501426537602444e+16,6500772737134.122,31427923775.738922,99175184001.35097,1484365949916.2236,20069519069143.617,48976974345231.54
4042.6506222962894,2.442428370183236e+16,2.450734890266507e+16,6500777900496.532,32179120571.01516,101545691246.85489,1552368220672.2815,20988950166097.92,53889379733620.7
4447.915684525919,2.442430237012802e+16,2.4513724652189316e+16,6500782869257.479,32838662663.04621,103626969322.8997,1617839881018.3164,21874165842211.777,59293027836829.88
4893.707252978511,2.4424320113655204e+16,2.4520592805524184e+16,6500787591881.69,33406277049.301,105418156699.77658,1680098479798.9075,22715938953536.71,65237042410059.945
5384.077978276362,2.4424336752936876e+16,2.4527998023927812e+16,6500792020599.504,33884372619.938774,106926854935.0633,1738510074468.1133,23505698223848.4,71775459444482.98
5923.485776103998,2.442435213077742e+16,2.4535991526887572e+16,6500796113571.638,34277849191.232265,108168526054.16415,1792518000493.367,24235917224148.777,78967718396652.66
6516.834353714399,2.442436612005382e+16,2.45446320402939e+16,6500799836962.977,34593729660.3203,109165331765.33282,1841670524984.9639,24900488266044.53,86879202550637.25
7169.5177890858395,2.4424378630486496e+16,2.45539867459323e+16,6500803166744.698,34840645374.69187,109944509472.83688,1885644981350.1975,25495048716271.848,95581833426570.8
7887.469567994424,2.4424389613689424e+16,2.4564132200885736e+16,6500806090038.316,35028225057.28852,110536443945.74413,1924265883734.0977,26017225914141.027,105154724639381.83
8677.216524793868,2.4424399065859216e+16,2.4575155199236372e+16,6500808605831.582,35166451615.07922,110972637637.71602,1957514736121.3633,26466769795674.863,115684901150248.17
9545.938177273256,2.4424407027630348e+16,2.4587153557646588e+16,6500810724939.735,35265055492.91094,111283796329.72145,1985529830451.5088,26845550163127.03,127268090445896.73
10501.531995000581,2.4424413580885932e+16,2.460023682084367e+16,6500812469156.844,35333006321.48366,111498224952.90686,2008595261789.1843,27157408162636.24,140009592832913.69
11552.68519450064,2.4424418842652776e+16,2.461452690147944e+16,6500813869630.792,35378147361.87107,111640674025.47707,2027119591173.2322,27407867792410.953,154025238752038.8
12708.953713950705,2.4424422956576604e+16,2.4630158688873e+16,6500814964594.38,35406993122.30082,111731701002.28653,2041605893818.8994,27603730935946.992,169442441807927.5
13980.849085345777,2.442442608280568e+16,2.4647280679477384e+16,6500815796672.751,35424684727.46624,111787529434.74219,2052616117300.6062,27752595463069.137,186401357080519.5
15379.933993880357,2.4424428387343124e+16,2.4666055694985036e+16,6500816410049.353,35435075702.3701,111820319672.35716,2060733499210.3174,27862347094257.508,205056155242976.28
16918.927393268394,2.4424430031999708e+16,2.4686661758884124e+16,6500816847791.78,35440907070.11244,111838721407.43054,2066527057148.61,27940679284471.715,225576424066601.4
18611.820132595236,2.44244311659665e+16,2.470929319759836e+16,6500817149608.842,35444026878.53803,111848566421.70209,2070521770539.4492,27994690064094.14,248148710054321.6
20474.00214585476,2.4424431919747304e+16,2.473416201884865e+16,6500817350235.452,35445614507.81996,111853576420.33061,2073177074545.5496,28030591264594.08,272978214220993.25
22522.40236044024,2.4424432401788508e+16,2.476149960052112e+16,6500817478535.719,35446381271.598206,111855996057.13567,2074874880910.6843,28053546553966.17,300290657441857.1
24775.642596484264,2.442443269772302e+16,2.4791558702593884e+16,6500817557301.771,35446731947.57902,111857102667.42422,2075916832300.134,28067634314488.992,330334332332126.06
27254.206856132692,2.4424432871789356e+16,2.4824615796905092e+16,6500817603631.343,35446883492.82734,111857103464.59752,2076529210126.6707,28075914000002.676,363382360314984.2
29980.627541745966,2.44244329696815e+16,2.48609737024146e+16,6500817629686.342,35446883634.897026,111857103912.91498,2076873102763.9556,28080563616547.348,399735174396537.9
32979.69029592056,2.442443302226557e+16,2.4900964504180148e+16,6500817643682.15,35446883711.211624,111857104153.73499,2077057210593.2605,28083052854349.86,439723250218077.2
36278.65932551262,2.442443304924693e+16,2.494495275248927e+16,6500817650863.495,35446883750.369316,111857104277.30167,2077150962995.9854,28084320437334.613,483710110203136.4
39907.525258063884,2.442443306252013e+16,2.4993338941559652e+16,6500817654396.311,35446883769.6325,111857104338.08897,2077196270787.2336,28084933022876.918,532095628103339.3
43899.277783870275,2.4424433069139132e+16,2.504656326438422e+16,6500817656158.029,35446883779.23863,111857104368.40207,2077196271350.1316,28085213350998.48,585319663978465.0
48290.20556225731,2.4424433073498704e+16,2.5105109667410732e+16,6500817657318.368,35446883785.56552,111857104388.36754,2077196271720.8787,28085213356010.25,643866062638864.2
53120.22611848305,2.4424433074110696e+16,2.5169510657135204e+16,6500817657481.27,35446883786.453735,111857104391.17044,2077196271772.9246,28085213356713.77,708267051750386.9
58433.24873033136,2.4424433074721084e+16,2.5240351686096304e+16,6500817657643.729,35446883787.339584,111857104393.96588,2077196271824.834,28085213357415.375,779108080100144.4
64277.57360336451,2.442443307539164e+16,2.531827674575038e+16,6500817657822.212,35446883788.31277,111857104397.03677,2077196271881.862,28085213358186.254,857033139082664.9
70706.33096370097,2.4424433076129244e+16,2.5403994224005308e+16,6500817658018.525,35446883789.3833,111857104400.41483,2077196271944.5867,28085213359034.137,942750616598875.4
77777.96406007107,2.442443307694064e+16,2.5498283344374744e+16,6500817658234.475,35446883790.56078,111857104404.13065,2077196272013.5872,28085213359966.84,1037039736155706.1
85556.76046607818,2.442443307783315e+16,2.5602001248870936e+16,6500817658472.023,35446883791.856125,111857104408.21803,2077196272089.4844,28085213360992.777,1140757639758067.0
94113.436512686,2.442443307881489e+16,2.5716090789045708e+16,6500817658733.331,35446883793.280876,111857104412.7144,2077196272172.9788,28085213362121.36,1254847178949592.2
103525.78016395462,2.44244330798948e+16,2.584158909596523e+16,6500817659020.762,35446883794.848236,111857104417.65988,2077196272264.8193,28085213363362.754,1380345484787544.0
113879.3581803501,2.442443308108275e+16,2.597963700697706e+16,6500817659336.95,35446883796.57221,111857104423.10042,2077196272365.8413,28085213364728.31,1518393394609674.0
125268.29399838512,2.4424433082389436e+16,2.6131489434905012e+16,6500817659684.723,35446883798.468636,111857104429.08455,2077196272476.967,28085213366230.418,1670245821228970.2
137796.12339822366,2.4424433083826816e+16,2.629852677386255e+16,6500817660067.303,35446883800.55465,111857104435.66731,2077196272599.2014,28085213367882.64,1837283158746947.0
151576.73573804603,2.442443308540792e+16,2.6482267445283184e+16,6500817660488.132,35446883802.84923,111857104442.90826,2077196272733.6604,28085213369700.195,2021023828584073.5
166735.40931185064,2.442443308714718e+16,2.66843816981135e+16,6500817660951.046,35446883805.37342,111857104450.87344,2077196272881.567,28085213371699.484,2223138079672567.8
183409.95024303574,2.442443308906027e+16,2.690670678849228e+16,6500817661460.251,35446883808.14992,111857104459.6351,2077196273044.2642,28085213373898.65,2445463168135336.5
201751.94526733932,2.4424433091164708e+16,2.7151263676752164e+16,6500817662020.365,35446883811.20403,111857104469.27278,2077196273223.2317,28085213376317.76,2690020054287605.5
221928.13979407327,2.4424433093479564e+16,2.7420275393341084e+16,6500817662636.49,35446883814.56356,111857104479.87419,2077196273420.0881,28085213378978.75,2959031768558159.0
244121.9537734806,2.4424433096025908e+16,2.7716187240391212e+16,6500817663314.224,35446883818.25905,111857104491.53575,2077196273636.6392,28085213381905.832,3254943613058137.5
268535.1491508287,2.4424433098826932e+16,2.8041689012302136e+16,6500817664059.736,35446883822.32409,111857104504.36343,2077196273874.8396,28085213385125.617,3580445382163845.5
295389.6640659116,2.442443310190795e+16,2.839973943699906e+16,6500817664879.796,35446883826.79561,111857104518.47374,2077196274136.861,28085213388667.355,3938495803775045.0
324929.6304725028,2.4424433105297104e+16,2.8793593059644124e+16,6500817665781.848,35446883831.71429,111857104533.99509,2077196274425.0767,28085213392563.277,4332349423025874.5
357423.5935197531,2.4424433109025116e+16,2.922682981269423e+16,6500817666774.111,35446883837.12468,111857104551.06845,2077196274742.1218,28085213396848.766,4765586172342278.0
393166.95287172846,2.442443311312602e+16,2.9703387540514524e+16,6500817667865.581,35446883843.07614,111857104569.84927,2077196275090.86,28085213401562.742,5242143896055594.0
432484.6481589014,2.4424433117636852e+16,3.022759777349024e+16,6500817669066.202,35446883849.622765,111857104590.50763,2077196275474.4744,28085213406748.125,5766354124513615.0
475734.11297479155,2.4424433122598856e+16,3.0804225075962336e+16,6500817670386.879,35446883856.82397,111857104613.23198,2077196275896.4453,28085213412451.97,6342981422016337.0
523308.52427227073,2.442443312805693e+16,3.143851032461839e+16,6500817671839.612,35446883864.74521,111857104638.22835,2077196276360.613,28085213418726.207,6977266665206035.0
575640.3766994978,2.4424433134060784e+16,3.2136218309471436e+16,6500817673437.592,35446883873.45854,111857104665.72433,2077196276871.1936,28085213425627.793,7674974644046192.0
