t(s),Total solute volume 1,Total retention volume 1,Total 1 volume 1,Total 2 volume 1,Total 3 volume 1,Total 4 volume 1,Total 5 volume 1,Total 6 volume 1
1.0,3554462719481924.5,3582279046780355.5,27816327298426.99,0.0,0.0,0.0,0.0,0.0
2.1,5443288892604701.0,5514506862666623.0,42597785386261.25,2599943010.4971757,19963116318.42085,764437869934.9685,16598188100883.082,11234995645497.812
3.3100000000000005,6947787228526105.0,7078021988922977.0,54371594825865.516,6968013304.04312,53501968521.16646,2047686159659.4346,44178689147873.83,29576320281652.14
4.641000000000001,8277561921411164.0,8483830278773249.0,64778063577836.82,13083035722.72948,100454002587.24213,3843759196176.573,82627275157086.7,54905722392665.23
6.105100000000002,9509906412670408.0,9811196201131758.0,74422069544744.2,21071448769.343483,161790055334.48138,6190031704809.747,132754700571951.11,87740125135753.42
7.7156100000000025,1.0682800494958922e+16,1.1100516945886298e+16,83600832467216.86,31131917050.564404,239035507327.63477,9145093240831.361,195815184424817.78,128885173370190.03
9.487171000000004,1.1817949453701576e+16,1.2376342440248124e+16,92484212136875.73,43516494786.78534,334125663268.09393,12783260833131.791,273393486576492.38,179354384841973.6
11.435888100000005,1.2928931600723702e+16,1.3655538201783104e+16,101178468818703.81,58525589898.60125,449367089736.12445,17193133263689.508,367376233907131.56,240350872390210.22
13.579476910000007,1.4024724944421456e+16,1.4950841961686632e+16,109753862029134.94,76507871148.29074,587436904358.22,22477596402386.406,479953136081368.4,313268477976754.2
15.937424601000009,1.5111448822147762e+16,1.6272644419540788e+16,118258280085946.28,97862433480.78935,751399403051.8734,28754496252762.54,613632058880824.8,399701500337009.2
18.53116706110001,1.6193308357811858e+16,1.7629979025579378e+16,126724631181552.25,123042206550.87007,944732232490.8777,36157684753706.55,771261956086506.6,501458621306699.1
21.384283767210015,1.7273145312350374e+16,1.9031121575168788e+16,135175154192201.84,152558169546.32025,1171358753598.0322,44838312772263.57,956061137613557.1,620577741317208.1
24.522712143931017,1.8352782163131884e+16,2.0483982511151984e+16,143624111352224.2,186984192253.57224,1435685213872.815,54966320452029.99,1171649931518812.0,759337315290868.5
27.97498335832412,1.943325648524959e+16,2.1996383128525036e+16,152079622460472.66,226962490025.15146,1742642634176.3943,66732125071767.7,1422087865804623.0,920257424814339.0
31.772481694156536,2.051500193562246e+16,2.3576264505611844e+16,160545081215065.44,273209841872.0987,2097734556229.9521,80348555000809.38,1711916493900568.8,1106081495474837.5
35.949729863572195,2.1598010447255964e+16,2.523185685516725e+16,169020424504262.97,326524891793.05054,2507093109154.3374,96053129303415.27,2046209847035396.2,1319729389067247.8
40.544702849929415,2.268197592065763e+16,2.697182583964448e+16,177503256897631.0,387796679894.75543,2977544518989.6226,114110727994685.3,2430632857401664.5,1564237735494051.0
45.59917313492236,2.376652889270694e+16,2.8805405126014176e+16,185990687106587.9,458016666591.0643,3516701444478.682,134817338531828.66,2871518778552441.5,1842574711005317.0
51.1590904484146,2.4851283630399936e+16,3.074252183602111e+16,194479696517105.34,538290204712.4275,4133051058073.782,158503642564966.12,3375938390008969.0,2157645135267276.8
57.27499949325607,2.5936010977966748e+16,3.27939168326139e+16,202968491839624.66,629852659860.9214,4836078814817.41,185540015057313.62,3951782990537037.0,2512148425738520.0
64.00249944258168,2.7020655196953492e+16,3.497126008829078e+16,211456636877197.0,734085343763.936,5636390756591.023,216341457716922.9,4607826701277910.0,2908609619364816.0
71.40274938683986,2.810527832973361e+16,3.728725893252406e+16,219944617107396.0,852531423072.4242,6545835595525.812,251372518278822.4,5353764352945692.0,3349500747439839.5
79.54302432552385,2.9189935458608572e+16,3.975575539821534e+16,228432863472272.72,986910481024.0947,7577616418225.321,291151814720246.44,6200221805278645.0,3837448929236478.0
88.49732675807624,3.0274522659372064e+16,4.239180854085415e+16,236920562490341.75,1139131317691.7236,8746388837980.931,336256084131384.3,7158750052319377.0,4375473662385191.5
98.34705943388387,3.135863887729683e+16,4.5211759139042824e+16,245404575334983.53,1311303155026.8154,10068346888060.248,387323873599750.6,8241822559463320.0,4967189603304910.0
109.18176537727226,3.2441481508308184e+16,4.8233277814171096e+16,253878620695101.34,1505745389812.8735,11561297774733.924,445058994579812.75,9462852452189028.0,5616939195234443.0
121.09994191499949,3.352177377494168e+16,5.147540274639709e+16,262332706464763.97,1724995551767.2302,13244722875405.363,510233714792129.2,1.0836235937273328e+16,6329856894497978.0
134.20993610649944,3.459771455491699e+16,5.495857847158616e+16,270752737147449.3,1971814696677.764,15139819080681.342,583691524657597.6,1.2377418497768408e+16,7111889523318298.0
148.6309297171494,3.566694661787374e+16,5.870471112729666e+16,279120265318730.53,2249189450750.6133,17269514468663.879,666349300640291.4,1.4102975804062656e+16,7969800435481745.0
164.49402268886433,3.672654765312367e+16,6.273725681595091e+16,287412421442131.3,2560330309994.4414,19658455271675.49,759198794953194.0,1.6030701850708634e+16,8911177310141789.0
181.94342495775078,3.77730528888574e+16,6.7081358181281976e+16,295602090905042.2,2908666376510.696,22332965530165.94,863307547981878.1,1.8179700129873884e+16,9944453891757104.0
201.13776745352587,3.880251693887673e+16,7.176404041776233e+16,303658398030869.3,3297837277861.397,25320985158097.508,979819486183710.2,2.0570477451199016e+16,1.1078949321036164e+16
222.25154419887846,3.981061761817683e+16,7.681447281753102e+16,311547518519770.56,3731683448722.0454,28651995466254.246,1109955599580331.5,2.322504309903645e+16,1.2324925303302622e+16
245.47669861876633,4.079279842311785e+16,8.226429672774611e+16,319233794459982.2,4214236214230.5737,32356943185483.77,1255015177256691.8,2.6167017976289524e+16,1.369366017722238e+16
271.024368480643,4.174444109103459e+16,8.814801630618517e+16,326681084725606.75,4749709202108.908,36468174703124.75,1416378116883371.5,2.9421759240526476e+16,1.5197538889109784e+16
299.1268053287073,4.266105609822965e+16,9.450344519987622e+16,333854255749487.94,5342492540974.852,41019391689661.49,1595508820081524.8,3.301650588569574e+16,1.6850158255889082e+16
330.03948586157804,4.353847733261637e+16,1.0137220034092264e+17,340720704961471.06,5997151090312.04,46045637664529.98,1793962144461254.0,3.6980549994169176e+16,1.8666447375959756e+16
364.0434344477359,4.43730472569779e+16,1.0880023330262646e+17,347251809806047.7,6718427602472.248,51583322400443.734,2013391808725447.8,4.1345437184715976e+16,2.06628034923981e+16
401.44777789250946,4.516178025443215e+16,1.168383897967092e+17,353424206018703.6,7511251243349.854,57670287429416.336,2255561541121534.5,4.614519826198847e+16,2.285724399447559e+16
442.5925556817604,4.590249410841255e+16,1.2554298860225309e+17,359220816531986.94,8380751302124.871,64345911338071.98,2522359125445067.0,5.1416612324763416e+16,2.5269575564459936e+16
487.8518112499365,4.659390238067443e+16,1.3497641223417683e+17,364631574381758.0,9332275218251.223,71651248151810.38,2815813336611158.0,5.719949966961039e+16,2.7921581749529356e+16
537.6369923749302,4.7235663563277944e+16,1.4520770280419613e+17,369653807341076.3,10371409280354.16,79629186172932.31,3138113577563687.5,6.353704078366981e+16,3.0837230476890404e+16
592.4006916124232,4.782838609670998e+16,1.5631315769735382e+17,374292277177987.5,11503999562560.605,88324608583877.19,3491631844040859.0,7.047611562386086e+16,3.404290324741773e+16
652.6407607736655,4.837359147588141e+16,1.683769208193001e+17,378558890924369.9,12736169931133.49,97784531506239.83,3878946470369886.0,7.806765532700413e+16,3.756764795368304e+16
718.9048368510321,4.887364049777461e+16,1.8149156619670595e+17,382472123705385.5,14074333354900.914,108058190608063.61,4302866965688465.0,8.636699659814675e+16,4.144345748742807e+16
791.7953205361354,4.933163001168512e+16,1.9575867153392128e+17,386056210733998.3,15525192352592.996,119197044280135.05,4766459149948703.0,9.54342273802996e+16,4.570557654462084e+16
871.9748525897489,4.975126910574263e+16,2.112893797995552e+17,389340178382609.6,17095724249069.91,131254660165269.48,5273069749338410.0,1.0533451106496266e+17,5.039283931671443e+16
960.1723378487239,5.013674435814902e+16,2.282049468674238e+17,392356789680607.4,18793146997281.5,144286452474744.28,5826349607878422.0,1.1613837542780336e+17,5.5548041084440504e+16
1057.1895716335964,5.0492583561686904e+16,2.466372725015012e+17,395141477865759.06,20624861628394.797,158349239869536.47,6430274702302844.0,1.2792195154784949e+17,6.121834711029847e+16
1163.9085287969563,5.082352628206572e+16,2.667294104235896e+17,397731333416150.0,22598367872320.81,173500597364239.34,7089164189514143.0,1.4076714699593749e+17,6.7455742657419544e+16
1281.299381676652,5.113440792942879e+16,2.8863605076139744e+17,400164196832515.25,24721150093724.066,189797980336409.62,7807694744796749.0,1.5476173631929373e+17,7.431752844061526e+16
1410.4293198443174,5.143006197040997e+16,3.125239648336006e+17,402477893383049.2,27000531376398.855,207297604001759.53,8590910440172202.0,1.699993500623037e+17,8.186686633195334e+16
1552.4722518287492,5.171524276310506e+16,3.385723980349331e+17,404709629236635.1,29443494350390.105,226053067560035.7,9444227345809256.0,1.86579341046411e+17,9.017338068846062e+16
1708.7194770116243,5.199456950256116e+16,3.669733916302777e+17,406895552800054.4,32056468213872.184,246113718800257.34,1.0373431899866548e+16,2.0460650325395126e+17,9.931382123408477e+16
1880.5914247127869,5.227249009466236e+16,3.979320086742217e+17,409070472008192.2,34845082410496.63,267522762698979.1,1.1384671877162074e+16,2.241906143818295e+17,1.0937279400345014e+17
2069.6505671840655,5.255326252389536e+16,4.316664331866042e+17,411267708515345.0,37813888661805.05,290315127058750.25,1.248443849434173e+16,2.454457680099565e+17,1.2044356743417542e+17
2277.615623902472,5.284095045951488e+16,4.684079053070986e+17,413519063311301.5,40966054612970.58,314515110203873.0,1.3679537822964732e+16,2.684894555252496e+17,1.3262896127124133e+17
2506.3771862927197,5.313942940862447e+16,5.0840044863861696e+17,415854864873742.8,44303034311570.24,340133850813710.0,1.4977049249302406e+16,2.93441351716146e+17,1.460423265145445e+17
2758.0149049219917,5.345239958925103e+16,5.519003396619239e+17,418304069908752.06,47824223160168.31,367166678566906.7,1.6384268229943744e+16,3.204217516797556e+17,1.608086251913379e+17
3034.816395414191,5.378340176199959e+16,5.991752633751578e+17,420894387243807.56,51526607873932.48,395590426467328.06,1.7908630057197964e+16,3.495496008758984e+17,1.770656192584762e+17
3339.2980349556105,5.413583242832242e+16,6.505030947757432e+17,423652396763710.06,55404425274239.99,425360811063203.75,1.9557610783554564e+16,3.8094005550839866e+17,1.9496517842236627e+17
3674.227838451172,5.451295499485311e+16,7.061702433068792e+17,426603636777894.8,59448847304996.055,456410014077967.6,2.133860088331606e+16,4.147015078379836e+17,2.146747170925653e+17
4042.6506222962894,5.491790365677628e+16,7.664694981255529e+17,429772634408950.75,63647713201120.91,488644626178870.1,2.3258746687848164e+16,4.509320117637586e+17,2.363787710433798e+17
4447.915684525919,5.5353676834531784e+16,8.31697317642584e+17,433182854228706.8,67985332865551.28,521944137624635.25,2.5324754174851756e+16,4.897150496725994e+17,2.6028072463588246e+17
4893.707252978511,5.5823117000746744e+16,9.021505194076416e+17,436856540388567.5,72442387678412.98,556160177181291.8,2.754264940842966e+16,5.311145942440251e+17,2.8660469964919126e+17
5384.077978276362,5.632887368172826e+16,9.781223488686048e+17,440814427079500.8,76995955497835.98,591116704816477.4,2.9917489946529304e+16,5.751694412511552e+17,3.155976169017995e+17
5923.485776103998,5.687334636832447e+16,1.05989794132034e+18,445075291769665.1,81619684760046.7,626611349470485.4,3.2453022047840148e+16,6.218868246203185e+17,3.4753144195785715e+17
6516.834353714399,5.745860412419253e+16,1.1477492446252904e+18,449655326084276.75,86284137593820.83,662418044874066.1,3.5151279794186784e+16,6.712353767972215e+17,3.827056264011369e+17
7169.5177890858395,5.8086278985613256e+16,1.2419295456452273e+18,454567301587949.9,90957313121610.33,698291049256923.0,3.801212466853058e+16,7.231375697521894e+17,4.214497565749254e+17
7887.469567994424,5.875743101494356e+16,1.3426678453375383e+18,459819513739574.44,95605349356531.53,733970336790248.1,4.103272817345791e+16,7.774618683840818e+17,4.6412642256517024e+17
8677.216524793868,5.947238436988965e+16,1.4501634597150008e+18,465414499029217.9,100193385628803.19,769188222091968.0,4.4207006317702296e+16,8.340149510384398e+17,5.111343218822172e+17
9545.938177273256,6.0230536301781384e+16,1.564581387312644e+18,471347540269850.8,104686548418903.62,803676932779081.4,4.752502385484915e+16,8.925345009173431e+17,5.629116152172027e+17
10501.531995000581,6.1030144922730056e+16,1.686049174368919e+18,477605005745799.4,109051003980013.98,837176695320702.9,5.097239854717301e+16,9.526832418369851e+17,6.199395563569828e+17
11552.68519450064,6.1868107124864536e+16,1.8146562141649784e+18,484162611299787.5,113255004381538.4,869443770755240.6,5.452975161442815e+16,1.0140450685986726e+18,6.82746425440575e+17
12708.953713950705,6.2739745198256904e+16,1.9504566121864975e+18,490983750498482.8,117269843572477.38,900257799691641.1,5.817226932299084e+16,1.0761242814644521e+18,7.519118048070359e+17
13980.849085345777,6.363862902411699e+16,2.0934768935248538e+18,498018103203248.8,121070640876869.23,929427822117285.4,6.186946049029222e+16,1.138349037325681e+18,8.280712501185705e+17
15379.933993880357,6.455646905224437e+16,2.2437298656987528e+18,505200798078304.06,124636884207590.11,956796451571125.1,6.558521176918917e+16,1.2000801244931005e+18,9.119214262503647e+17
16918.927393268394,6.5483121535202664e+16,2.401235807987977e+18,512452453582788.44,127952695121004.98,982241912156715.4,6.9278250961366424e+16,1.2606259914542177e+18,1.0042257969763314e+18
18611.820132595236,6.640674873077636e+16,2.5660517652384097e+18,519680431688431.75,131006819825447.86,1005677969153100.4,7.290312038795349e+16,1.319264552687503e+18,1.1058209782115052e+18
20474.00214585476,6.731416961075059e+16,2.7383090289093786e+18,526781582425717.5,133792397073079.8,1027052143432575.6,7.641172915737093e+16,1.3752716200734136e+18,1.2176238839449116e+18
22522.40236044024,6.8191418240483416e+16,2.918257892577707e+18,533646613575741.2,136306594164094.48,1046342909496256.6,7.975548915038602e+16,1.4279548804954775e+18,1.3406398085741217e+18
24775.642596484264,6.902449677820122e+16,3.106317560265275e+18,540165983369647.06,138550223112348.7,1063556737225834.8,8.288794547172053e+16,1.476691249765722e+18,1.475971595305922e+18
27254.206856132692,6.980027107621209e+16,3.303127855164394e+18,546236909120133.1,140527440016530.53,1078725768989515.1,8.576769939366456e+16,1.5209643602961073e+18,1.6248300342802808e+18
29980.627541745966,7.050741673102019e+16,3.509598405975616e+18,551770770629558.4,142245589093283.25,1091906605264050.1,8.83613138631262e+16,1.5603981380118203e+18,1.7885456144046584e+18
32979.69029592056,7.1137293189032744e+16,3.726950594081696e+18,556699950573979.1,143715187045535.3,1103180167639931.6,9.064582030690475e+16,1.5947821646869722e+18,1.968581720593528e+18
36278.65932551262,7.168461456311903e+16,3.9567479805635794e+18,560983084015406.06,144949972703436.3,1112652065442791.9,9.26104416490469e+16,1.6240850115366991e+18,2.1665493276925535e+18
39907.525258063884,7.214780539051546e+16,4.2009122830151916e+18,564607842384792.5,145966895881024.62,1120452500596827.9,9.425722744298834e+16,1.648453021162321e+18,2.384223201780507e+18
43899.277783870275,7.25289768743205e+16,4.4617240857322696e+18,567590747521567.5,146785908999693.9,1126734664852192.8,9.560045614584058e+16,1.6681939521064643e+18,2.6235595892842644e+18
48290.20556225731,7.283352429807235e+16,4.741809957935574e+18,569974021170453.2,147429462949455.16,1131670873420647.5,9.666486411932349e+16,1.683747129550556e+18,2.886715365610076e+18
53120.22611848305,7.306941299578352e+16,5.044119996215107e+18,571819997245633.2,147921684854171.84,1135446262677865.8,9.748296103938211e+16,1.6956437972364124e+18,3.176068636998758e+18
58433.24873033136,7.324627137686898e+16,5.371901479133277e+18,573204024191624.4,148287305110127.1,1138250567140591.5,9.809183661955963e+16,1.704462783090394e+18,3.494240846150024e+18
64277.57360336451,7.337443297982245e+16,5.728674962439044e+18,574206968469976.6,148550474426619.7,1140269053537262.8,9.852992006421456e+16,1.7107870627891978e+18,3.844120520109379e+18
70706.33096370097,7.346406197722218e+16,6.118218650266311e+18,574908371107282.5,148733645422134.7,1141673949529309.2,9.883411427685797e+16,1.7151662525674952e+18,4.228888905478692e+18
77777.96406007107,7.352446339065646e+16,6.544565425287663e+18,575381049712195.1,148856679419292.97,1142617598443835.0,9.90376105979438e+16,1.7180886539899535e+18,4.65204784198154e+18
85556.76046607818,7.356363180537667e+16,7.012014896233623e+18,575687566898142.6,148936285715975.25,1143228162565046.2,9.916853285939242e+16,1.7199645694985777e+18,5.117450310055095e+18
94113.436512686,7.358804354546696e+16,7.525160707488752e+18,575878603932448.5,148985827449489.22,1143608136766893.2,9.924940216599197e+16,1.721120653137697e+18,5.629334136071464e+18
103525.78016395462,7.360265786061493e+16,8.088931599058938e+18,575992970028184.1,149015413942376.5,1143835058039390.8,9.929728924479997e+16,1.7218034649531907e+18,6.192359343558328e+18
113879.3581803501,7.361106848269747e+16,8.708643626909979e+18,576058788371124.1,149032441138178.56,1143965652489361.0,9.932444791438102e+16,1.7221894242871718e+18,6.811649629343737e+18
125268.29399838512,7.361574106201746e+16,9.390060599051788e+18,576095354207081.6,149041900714571.88,1144038205126906.2,9.933920708677872e+16,1.72239812432866e+18,7.492838351114273e+18
137796.12339822366,7.361827633671899e+16,1.0139460203340876e+19,576115194306592.8,149047033345370.47,1144077571145120.2,9.93469228187849e+16,1.7225062871280778e+18,8.242119477258513e+18
151576.73573804603,7.36196573531004e+16,1.0963704056001722e+19,576126001617674.9,149049829195121.75,1144099014623142.5,9.935085085653712e+16,1.7225604379127444e+18,9.066303835033884e+18
166735.40931185064,7.362045477593376e+16,1.1870310909909217e+19,576132241946690.9,149051443567278.4,1144111396456286.5,9.935285970095736e+16,1.7225872094285652e+18,9.972881090921804e+18
183409.95024303574,7.362098170289792e+16,1.2867533151483296e+19,576136365477479.0,149052510324039.62,1144119578212437.0,9.93539607738036e+16,1.7226009748172795e+18,1.09700879257353e+19
201751.94526733932,7.36214007149986e+16,1.396443738069054e+19,576139644507415.8,149053358608548.0,1144126084338877.0,9.935467023892501e+16,1.7226090407393157e+18,1.2066982949909842e+19
221928.13979407327,7.362179263072904e+16,1.5170990203549305e+19,576142711491412.1,149054152036795.47,1144132169730171.2,9.935517036443723e+16,1.7226149129064404e+18,1.327352899861443e+19
244121.9537734806,7.36221974514812e+16,1.649815053374962e+19,576145879465214.8,149054971591083.34,1144138455500629.5,9.935568695335787e+16,1.7226197779360369e+18,1.4600683532102212e+19
268535.1491508287,7.362262759970282e+16,1.7957970992188666e+19,576149245642191.9,149055842420497.6,1144145134537841.0,9.935623586099275e+16,1.722624947223003e+18,1.6060497831282344e+19
295389.6640659116,7.362309757434856e+16,1.9563706224628527e+19,576152923485671.0,149056793877980.7,1144152431971255.0,9.935683558901336e+16,1.7226305949846561e+18,1.7666226334331197e+19
324929.6304725028,7.362361388047683e+16,2.13299336666249e+19,576156963901774.1,149057839132938.78,1144160448806943.5,9.935749443910544e+16,1.7226367994462351e+18,1.9432446383607243e+19
