t(s),Total solute volume 1,Total retention volume 1,Total 1 volume 1,Total 2 volume 1,Total 3 volume 1,Total 4 volume 1,Total 5 volume 1,Total 6 volume 1
1.0,2672264339004783.0,2676635531502327.0,4371192497536.0103,0.0,0.0,0.0,0.0,0.0
2.1,3163741795500447.0,4930935762079288.0,5175133352927.716,251796031521.94528,1281281812407.9133,27434198609017.203,590965471341825.8,1142086085431133.8
3.3100000000000005,3358716412180463.5,7296623555628461.0,5494065724183.428,561232212756.3235,2855874750973.7876,61156561260089.16,1317585056858847.0,2550254352641143.5
4.641000000000001,3460131223217631.0,9855369786681142.0,5659956389230.679,911093282855.6958,4636179002705.931,99293974723676.58,2139438488391025.5,4145298871674015.5
6.105100000000002,3521062731178718.5,1.2647646661518226e+16,5759625943531.595,1299598422010.2246,6613134358901.894,141655383960571.5,3052383422339364.0,5918872765315164.0
7.7156100000000025,3561140882550192.5,1.5705625761731304e+16,5825184335443.736,1728524392956.8298,8795784046113.052,188438036301178.75,4060653538258245.0,7879043811847204.0
9.487171000000004,3589195102567383.0,1.906029847666963e+16,5871074416663.919,2200987770870.4727,11199989547404.797,239986041083682.44,5171654139008427.0,1.0040191142275182e+16
11.435888100000005,3609745105875494.5,2.2743829870738656e+16,5904689371910.971,2720858602580.46,13845447063699.418,296726674245803.0,6394586822364544.0,1.242030027321463e+16
13.579476910000007,3625328965767192.5,2.679063273610027e+16,5930180889282.688,3292582799970.997,16754783872648.629,359151253287557.4,7740035592998469.0,1.5040139376485192e+16
15.937424601000009,3637475067072939.5,3.1238021153445804e+16,5950049045258.816,3921135324322.525,19953320257001.0,427810312296967.56,9219861861304588.0,1.792304940814462e+16
18.53116706110001,3647155543909213.5,3.612671403881522e+16,5965884021623.335,4612023868940.471,23469088432140.42,503314338919540.06,1.0847219706001906e+16,2.1094977453661816e+16
21.384283767210015,3655016633584793.5,4.1501290307356744e+16,5978742909992.732,5371315723572.834,27332969476774.617,586337108759556.9,1.263662732477463e+16,2.4584626212127372e+16
24.522712143931017,3661503892975842.5,4.741063994574939e+16,5989354536207.4795,6205677382939.753,31578895161527.145,677620494275114.5,1.4604070368845164e+16,2.8423671262572616e+16
27.97498335832412,3666934123390247.5,5.390843328966456e+16,5998237112412.217,7122422578832.867,36244092699480.016,777980294770325.9,1.6767127331986216e+16,3.2647026787127036e+16
31.772481694156536,3671538624609793.5,6.1053621603858376e+16,6005768990448.239,8129566862684.325,41369362898713.98,888312904335369.9,1.914511301187568e+16,3.729315236428563e+16
35.949729863572195,3675490237130841.0,6.891097801193491e+16,6012232896570.569,9235887920072.89,46999387565467.4,1009602753722621.5,2.175923864099595e+16,4.240439887170319e+16
40.544702849929415,3678920822391533.0,7.755168603396275e+16,6017844524970.624,10450991274021.688,53183064428283.18,1142930518965617.0,2.463278851445208e+16,4.802739427792624e+16
45.59917313492236,3681932894943668.0,8.705398227586096e+16,6022771565262.015,11785381246742.0,59973868939539.07,1289482118693079.5,2.7791313572541616e+16,5.421347166793128e+16
51.1590904484146,3684607563638781.5,9.750385965080802e+16,6027146692385.549,13250537131182.072,67430242730251.266,1450558538060087.5,3.1262842740440708e+16,6.101914288211451e+16
57.27499949325607,3687010078158457.0,1.0899583765481014e+17,6031076639423.08,14858994531304.201,75616008536891.95,1627586526411164.5,3.5078113024546548e+16,6.850662194598616e+16
64.00249944258168,3689193783708497.5,1.2163380654571526e+17,6034648666543.664,16624431788170.494,84600811211161.19,1822130221118713.5,3.927081947796649e+16,7.674440317125574e+16
71.40274938683986,3691202994509821.0,1.3553195272605622e+17,6037935261355.892,18561761327483.992,94460584015193.83,2035903752819941.0,4.3877886204810584e+16,8.580789949331203e+16
79.54302432552385,3693075118717192.5,1.5081577317298448e+17,6040997614773.563,20687225645523.375,105278038807525.19,2270784888031835.5,4.89397595857212e+16,9.578014731844656e+16
88.49732675807624,3694842256154507.5,1.676231873759007e+17,6043888234533.389,23018497492634.367,117143177930169.23,2528829763960346.0,5.450072487763126e+16,1.0675258491449771e+17
98.34705943388387,3696532419114808.5,1.8610575592474637e+17,6046652942135.655,25574783612207.727,130153824592279.33,2812288767083893.5,6.060924726571182e+16,1.1882591221168955e+17
109.18176537727226,3698170480021371.5,2.0643001563387437e+17,6049332422993.965,28376931142210.902,144416167279541.53,3123623601446957.5,6.7318338317514824e+16,1.3211104080404646e+17
121.09994191499949,3699778918832522.5,2.2877894188469482e+17,6051963449013.331,31447535478209.914,160045312162073.9,3465525584063803.5,7.46859485978486e+16,1.4673014397286058e+17
134.20993610649944,3701378422140148.0,2.5335354972238784e+17,6054579858573.644,34811048022602.125,177165835582173.84,3840935192774566.0,8.277538693425406e+16,1.6281781770975606e+17
148.6309297171494,3702988371505610.0,2.8037464614555574e+17,6057213355332.278,38493881794638.234,195912326426658.16,4253062875542360.5,9.165576646011992e+16,1.8052236501681114e+17
164.49402268886433,3704627248513355.5,3.100847469800789e+17,6059894170795.861,42524512339123.414,216429905472599.3,4705411108589085.0,1.0140247708509408e+17,2.000072172259006e+17
181.94342495775078,3706312976890642.5,3.427501727261151e+17,6062651623947.595,46933570737362.25,238874705583144.38,5201797662823906.0,1.1209768342619437e+17,2.2145250773226154e+17
201.13776745352587,3708063216916467.0,3.786633388055609e+17,6065514602830.784,51753924780886.93,263414292865014.28,5746380002401549.0,1.238308464492549e+17,2.4505681540474054e+17
222.25154419887846,3709895623607379.0,4.1814525671075456e+17,6068511986879.56,57020743506405.07,290228004527636.1,6343680694416868.0,1.366992660856796e+17,2.7103909704702928e+17
245.47669861876633,3711828077403312.5,4.6154826365601875e+17,6071673024266.8,62771539300573.78,319507174160333.0,6998613652914041.0,1.5080864086523018e+17,2.9964083067398624e+17
271.024368480643,3713878893996442.0,5.092589994535345e+17,6075027675134.286,69046180660017.87,351455209438410.2,7716510971510200.0,1.662736390975248e+17,3.311283940727306e+17
299.1268053287073,3716067018348102.5,5.617016504628379e+17,6078606928958.705,75886867434783.23,386287480875432.1,8503150014681911.0,1.8321847429284688e+17,3.6579570618172186e+17
330.03948586157804,3718412206680096.0,6.19341481587563e+17,6082443102246.383,83338058998784.69,424230973188247.75,9364780335526448.0,2.017774752807405e+17,4.039671622893284e+17
364.0434344477359,3720935199203455.5,6.826886784005786e+17,6086570121076.73,91446344295924.77,465523643216671.94,1.0308149864709634e+16,2.220956388009186e+17,4.460008979781147e+17
401.44777789250946,3723657885482513.5,7.523025225558136e+17,6091023791598.712,100260241137059.02,510413420296847.94,1.1340529668229362e+16,2.4432914913875258e+17,4.9229242117812243e+17
442.5925556817604,3726603463565561.5,8.287959246792209e+17,6095842060331.047,109829910521916.94,559156776779615.56,1.246973639726778e+16,2.6864584558717667e+17,5.432786567018486e+17
487.8518112499365,3729796593299716.5,9.128403399114452e+17,6101065264949.056,120206770207772.95,612016788393111.4,1.370415134842315e+16,2.9522561406773645e+17,5.994424532781204e+17
537.6369923749302,3733263543547450.5,1.005171092195031e+18,6106736375096.178,131442990351694.81,669260596915113.0,1.5052734813765532e+16,3.242606740683815e+17,6.61317609445694e+17
592.4006916124232,3737032332304455.0,1.1065931342612278e+18,6112901221583.573,143590852963913.97,731156181889436.9,1.6525034124585364e+16,3.5595572609622336e+17,7.294944817720371e+17
652.6407607736655,3741132857952856.5,1.217987271090297e+18,6119608711089.376,156701956322664.44,797968344878925.9,1.8131183478270108e+16,3.905279180589716e+17,8.046262467851886e+17
718.9048368510321,3745597019046119.0,1.340316875427971e+18,6126911022098.521,170826245667917.75,869953810265105.5,1.9881893283591572e+16,4.2820658136684506e+17,8.874358967915319e+17
791.7953205361354,3750458819086862.0,1.4746351248001318e+18,6134863776294.407,186010852727194.4,947355352469403.4,2.178842636690234e+16,4.69232679119776e+17,9.787240594253924e+17
871.9748525897489,3755754451705448.5,1.6220927904761562e+18,6143526177891.047,202298729311300.6,1030394872606131.9,2.386255795429335e+16,5.138578996092353e+17,1.079377741332827e+18
960.1723378487239,3761522360457026.0,1.7839466101379968e+18,6152961111446.829,219727064795045.62,1119265370235415.4,2.6116515890730844e+16,5.623433187080315e+17,1.1903801077826342e+18
1057.1895716335964,3767803266112111.0,1.9615682778343142e+18,6163235186505.563,238325484264151.1,1214121790592593.5,2.8562897090242196e+16,6.149575448574225e+17,1.3128214221104952e+18
1163.9085287969563,3774640152813593.0,2.1564540874412772e+18,6174418714952.56,258114033989661.4,1315070777116531.5,3.121455575258286e+16,6.719742507669615e+17,1.4479112815391012e+18
1281.299381676652,3782078202811215.5,2.370235269728876e+18,6186585604255.925,279100974196787.47,1422159425920777.5,3.4084458462524132e+16,7.336689873124982e+17,1.5969922987653245e+18
1410.4293198443174,3790164667680937.5,2.604689068795256e+18,6199813146811.848,301280416258227.7,1535363225308708.2,3.718550095151467e+16,8.003151684182075e+17,1.7615553913031416e+18
1552.4722518287492,3798948662024214.0,2.861750611795321e+18,6214181682485.589,324629862719486.75,1654573470931536.8,4.053028110706101e+16,8.72179112242215e+17,1.9432568522686825e+18
1708.7194770116243,3808480863689371.0,3.1435256374569324e+18,6229774108244.618,349107733907721.25,1779584575624302.5,4.413082284049491e+16,9.495140254577407e+17,2.143937386211368e+18
1880.5914247127869,3818813102666807.5,3.452304164959908e+18,6246675205688.754,374650993769368.8,1910081839891319.8,4.799824576824511e+16,1.0325528259998993e+18,2.3656433005802353e+18
2069.6505671840655,3829997819139460.5,3.790575206680449e+18,6264970754549.017,401173018845029.25,2045630408686486.2,5.214237644860766e+16,1.1214997180048652e+18,2.610650046009546e+18
2277.615623902472,3842087369944588.0,4.1610426576133274e+18,6284746398223.42,428561885870394.56,2185666302390404.2,5.657129829324143e+16,1.2165204639876111e+18,2.881488295027874e+18
2506.3771862927197,3855133162233509.0,4.5666425326786166e+18,6306086226649.574,456679282270299.0,2329490559163799.0,6.129083941063565e+16,1.317731347224913e+18,3.1809727369531735e+18
2758.0149049219917,3869184593813099.0,5.010561772370447e+18,6329071042954.367,485360265471681.44,2476267640482233.0,6.6304000723920776e+16,1.4251868857667791e+18,3.5122337443089413e+18
3034.816395414191,3884287782045445.0,5.496258899003796e+18,6353776284235.054,514414105984781.6,2625029303777162.0,7.161033092648195e+16,1.53886645241348e+18,3.878752030695755e+18
3339.2980349556105,3900484067921122.0,6.027486881518498e+18,6380269574577.268,543626439099572.7,2774685102734343.5,7.720526036418662e+16,1.658660075761009e+18,4.28439636951397e+18
3674.227838451172,3917808289769693.0,6.608318657084922e+18,6408607901254.451,572762913896104.1,2924040501466933.0,8.307941287500958e+16,1.7843538481092506e+18,4.733464375787632e+18
4042.6506222962894,3936286832873835.5,7.24317586214911e+18,6438834424358.484,601574459689071.4,3071823250325685.0,8.92179229805903e+16,1.9156155462852352e+18,5.230726269505967e+18
4447.915684525919,3955935477854601.0,7.936861441831604e+18,6470974957267.451,629804184605322.0,3216718144860439.5,9.559979543958416e+16,2.0519812769855078e+18,5.781471440624238e+18
4893.707252978511,3976757092813681.5,8.694596930109372e+18,6505034191537.176,657195778154054.2,3357409570665709.5,1.0219735460948117e+17,2.1928441791015844e+18,6.391557528922474e+18
5384.077978276362,3998739242235451.5,9.522065316183579e+18,6540991785630.942,683503114768270.9,3492630350515206.5,1.0897584153702552e+17,2.3374464339776666e+18,7.067461626969602e+18
5923.485776103998,4021851819189599.0,1.0425460523434697e+19,6578798491763.666,708500561629919.9,3621214421098414.5,1.1589322597310574e+17,2.484876023333635e+18,7.816333128527519e+18
6516.834353714399,4046044846365509.0,1.1411544610340604e+19,6618372558914.654,731993304205243.8,3742149887129448.5,1.2290030688194974e+17,2.6340697966381297e+18,8.646047700410274e+18
7169.5177890858395,4071246628479265.0,1.2487713840490627e+19,6659596710602.529,753826846986809.5,3854628182501415.5,1.2994117610623874e+17,2.783824413215047e+18,9.565261889914649e+18
7887.469567994424,4097362480301527.0,1.3662074735740725e+19,6702316064239.365,773894763709359.6,3958084608856896.0,1.369541133626512e+17,2.932816562066366e+18,1.0583468016142787e+19
8677.216524793868,4124274277406878.5,1.4943531106437628e+19,6746337396262.302,792143794511133.6,4052225595824205.5,1.4387296348755e+17,3.0796334657375427e+18,1.1711049287207373e+19
9545.938177273256,4151841089367726.0,1.6341882824037159e+19,6791430177887.271,808575547936010.2,4137038796956322.0,1.5062901706784227e+17,3.2228140110788905e+18,1.2959335549025987e+19
10501.531995000581,4179901136086785.5,1.7867936759238337e+19,6837329775204.492,823244369775197.9,4212783642937817.5,1.5715337190100147e+17,3.360899893686485e+18,1.4340660727172282e+19
11552.68519450064,4208275252862785.5,1.953362986121956e+19,6883743117203.541,836251369018704.9,4279962130327133.0,1.6337969637007546e+17,3.49249494765388e+18,1.586842384470032e+19
12708.953713950705,4236771950579226.5,2.1352163832086036e+19,6930356973041.949,847735089238284.1,4339272163129079.5,1.6924725092375133e+17,3.6163294533723807e+18,1.7557156418229965e+19
13980.849085345777,4265194013460864.5,2.333815031264183e+19,6976848744410.48,857859797180923.5,4391548262276198.0,1.7470395826865024e+17,3.731324847696102e+18,1.942259992775549e+19
15379.933993880357,4293346396573164.5,2.5507765023498433e+19,7022899383970.118,866802728948530.9,4437696402851007.0,1.797092580152496e+17,3.836653149968423e+18,2.148179774708701e+19
16918.927393268394,4321044988502994.5,2.7878908998205882e+19,7068207729021.467,874741795934841.2,4478630652060903.5,1.842364510651244e+17,3.9317848547642404e+18,2.3753206206732304e+19
18611.820132595236,4348125622522390.5,3.0471375000876937e+19,7112505241633.93,881845152507803.8,4515218863042387.0,1.882742463483271e+17,4.016519303680639e+18,2.6256829148704612e+19
20474.00214585476,4374452590378638.0,3.3307017512927494e+19,7155569935190.473,888263670000638.4,4548242932147294.0,1.9182727688603728e+17,4.0909928145857434e+18,2.901437930669331e+19
22522.40236044024,4399925874442447.5,3.6409925323008918e+19,7197238204470.609,894126818979437.1,4578376397902670.0,1.9491545466686266e+17,4.155662117366348e+18,3.204946812464617e+19
24775.642596484264,4424486392732354.0,3.98065967072237e+19,7237413405270.944,899541858592014.6,4606179073267673.0,1.9757217439775488e+17,4.211263680291244e+18,3.5387823407796597e+19
27254.206856132692,4448118751937005.0,4.352611830704183e+19,7276070357700.941,904595710067115.6,4632105686857416.0,1.9984153313541507e+17,4.2587528289785426e+18,3.905753184870851e+19
29980.627541745966,4470851302468722.5,4.760034989533496e+19,7313255436241.522,909358566487637.6,4656523768830417.0,2.017748761155003e+17,4.299229515103999e+18,4.308930145722222e+19
32979.69029592056,4492753636627471.5,5.206411803171946e+19,7349082477338.27,913888215707003.5,4679735547478434.0,2.0342707732251507e+17,4.3338595267934264e+18,4.751673770112135e+19
36278.65932551262,4513931999700068.0,5.695542193693435e+19,7383725273050.322,918234205377199.0,4701999332390923.0,2.0485299240910026e+17,4.363800365448522e+18,5.237662702981396e+19
39907.525258063884,4534523328615826.0,6.231565463418496e+19,7417407819706.172,922441276116062.2,4723547342878051.0,2.0610447269060384e+17,4.390139800578102e+18,5.770922243156088e+19
43899.277783870275,4554688747048657.0,6.818984150649742e+19,7450393677433.6045,926551823687231.5,4744598650366156.0,2.0722821250520794e+17,4.4138525195097477e+18,6.355852748486776e+19
48290.20556225731,4574607315115186.0,7.462689702317023e+19,7482975746146.974,930607430696182.6,4765367356470436.0,2.0826454576239562e+17,4.435776927683644e+18,6.997257748464625e+19
53120.22611848305,4594470676668107.0,8.167989870817074e+19,7515467509787.108,934649680284985.1,4786067042230987.0,2.0924714785675488e+17,4.4566108169583063e+18,7.700371804048926e+19
58433.24873033136,4614479015290867.0,8.94063757001913e+19,7548196421285.236,938720522556338.1,4806912854421858.0,2.1020347152185104e+17,4.476922032204121e+18,8.470888253587664e+19
64277.57360336451,4634838480441358.0,9.786860768556682e+19,7581499692342.124,942862437046966.6,4828122477586173.0,2.1115567305646022e+17,4.4971688885467423e+18,9.314986971906838e+19
70706.33096370097,4655760030631068.0,1.0713392867008564e+20,7615722401141.297,947118563304537.2,4849916887404746.0,2.121217746077478e+17,4.517725004659403e+18,1.0239362147961518e+20
77777.96406007107,4677459494759722.0,1.1727502897566879e+20,7651217592675.828,951532893855899.6,4872521385563260.0,2.131168479425251e+17,4.538904155882153e+18,1.1251249880685237e+20
85556.76046607818,4700158585393244.0,1.2837024788954479e+20,7688347936229.272,956150562681728.6,4896167100524634.0,2.1415407377961587e+17,4.560982242092954e+18,1.2358455140907567e+20
94113.436512686,4724086597850765.0,1.4050384839798504e+20,7727488504677.915,961018225596371.1,4921092946234126.0,2.1524560463478326e+17,4.584215014084584e+18,1.3569377385400741e+20
103525.78016395462,4749482573491646.0,1.537662642546134e+20,7769030313114.815,966184513865146.0,4947547947128415.0,2.1640322003563357e+17,4.6088514433971456e+18,1.489303386071158e+20
113879.3581803501,4776597769483639.0,1.6825430816628457e+20,7813384358804.241,971700541400422.5,4975793846783120.0,2.1763880196186563e+17,4.635143388858779e+18,1.6339079406992156e+20
125268.29399838512,4805698340679858.0,1.840713280967255e+20,7860986008096.756,977620452340119.1,5006107898143074.0,2.1896467542319462e+17,4.663352526225789e+18,1.7917821360739874e+20
137796.12339822366,4837068190454635.0,2.0132729662226114e+20,7912299659720.65,984002000959977.4,5038785842686389.0,2.2039385985557338e+17,4.693755493578874e+18,1.9640227950049313e+20
151576.73573804603,4871011982655188.0,2.2013881600657673e+20,7967823671621.19,990907164823509.2,5074145047942755.0,2.2194026890004973e+17,4.726648020967869e+18,2.151792836846895e+20
166735.40931185064,4907858327583911.0,2.4062901930991826e+20,8028095572472.73,998402792903865.9,5112527826300539.0,2.2361888534830982e+17,4.762348584525379e+18,2.35632025023002e+20
183409.95024303574,4947963164726482.0,2.6292734556119394e+20,8093697595020.215,1006561293729512.9,5154304958763183.0,2.254459283727292e+17,4.801201926526794e+18,2.578895807831796e+20
201751.94526733932,4991713367429142.0,2.8716916498429864e+20,8165262572477.449,1015461368680964.1,5199879449908934.0,2.2743902285061027e+17,4.843582639942974e+18,2.8208692810205626e+20
221928.13979407327,5039530592501717.0,3.134952287178505e+20,8243480235565.239,1025188795112469.2,5249690537986506.0,2.2961737755342442e+17,4.889898924732605e+18,3.083643897621593e+20
244121.9537734806,5091875392105769.0,3.420509166999703e+20,8329103938586.257,1035837262830181.2,5304217978229789.0,2.3200197200470806e+17,4.940596576886752e+18,3.368668778913419e+20
268535.1491508287,5149251596730775.0,3.729852577806708e+20,8422957828935.237,1047509265717517.2,5363986608560444.0,2.3461575692871635e+17,4.996163221092469e+18,3.6774290963222056e+20
295389.6640659116,5212210965352269.0,4.064496981519421e+20,8525944453656.049,1060317047713063.2,5429571193609328.0,2.3748386603365366e+17,5.057132805450929e+18,4.01143370855306e+20
324929.6304725028,5281358082109398.0,4.425965983896466e+20,8639052769245.3125,1074383598937704.6,5501601525531458.0,2.406338390179489e+17,5.124090329335328e+18,4.372200082390331e+20
357423.5935197531,5357355455287310.0,4.8157744643906096e+20,8763366482378.953,1089843692976387.2,5580767735556848.0,2.4409585378515206e+17,5.19767676548422e+18,4.761236370895418e+20
