t(s),Total solute volume 1,Total retention volume 1,Total 1 volume 1,Total 2 volume 1,Total 3 volume 1,Total 4 volume 1,Total 5 volume 1,Total 6 volume 1
1.0,1802230404083058.8,1802576492555096.8,346088472037.3903,0.0,0.0,0.0,0.0,0.0
2.1,2769831611987764.5,2770363658680646.5,531900241852.15515,189733.089182176,549444.6271580372,5057202.503636155,62760475.27541559,77894169.46976633
3.3100000000000005,3548793645142939.5,3549475526118631.5,681486985682.1512,510269.3321342222,1477679.7300070492,13603380.963783264,168819380.18591502,209579297.30835408
4.641000000000001,4245304938123633.5,4246120921341780.0,815240431895.6656,961672.1440041943,2784888.952392162,25642631.367158562,318227557.73625004,395169500.42674124
6.105100000000002,4898984282539307.0,4899926252910470.0,940768712544.7119,1555169.072839643,4503585.947902423,41477266.81575536,514736747.66819465,639385843.6429758
7.7156100000000025,5529751988311208.0,5530815669493961.0,1061897192868.2881,2307837.98408351,6683226.197199201,61566501.31709429,764045832.4285153,949386488.4738415
9.487171000000004,6149435239230595.0,6150618643137889.0,1180897087409.2793,3241410.408258917,9386741.643724065,86494888.36069681,1073409151.1129007,1334287679.319122
11.435888100000005,6765862453393278.0,6767165115840700.0,1299271714045.5178,4382100.190429915,12690044.481084986,116968160.41702206,1451584848.6384313,1805108230.1199024
13.579476910000007,7384613130504453.0,7386035683087626.0,1418092523479.6404,5760808.387943128,16682620.648710862,153819223.98411667,1908910768.824111,2374886261.95962
15.937424601000009,8009843674155574.0,8011387574965154.0,1538157683376.9556,7413489.851739947,21468590.86906847,198018483.58372012,2457426655.732014,3058798987.164736
18.53116706110001,8644680188110165.0,8646347528331808.0,1660067510391.8298,9381572.723601937,27167926.232879866,250685960.47148603,3111033012.788976,3874442789.161058
21.384283767210015,9291379677195644.0,9293173018957988.0,1784255424770.5803,11712348.41982844,33917577.03675916,313102605.99739075,3885625911.9021854,4841979146.146011
24.522712143931017,9951358597508590.0,9953280817478754.0,1910993432919.043,14459256.884433234,41872298.68876871,386719113.2621274,4799204646.063653,5984281922.683151
27.97498335832412,1.0625148866827074e+16,1.0627202991639674e+16,2040383681435.2744,17681998.13355149,51204975.74974476,473160560.56840163,5871940605.458582,7327143027.190926
31.772481694156536,1.1312325014998256e+16,1.1314514042522698e+16,2172344465353.103,21446412.660108462,62106274.12847027,574224768.8893709,7126140699.471848,8899140929.459688
35.949729863572195,1.2011436437700014e+16,1.201376314521399e+16,2306597220059.228,25824091.408767458,74783512.54995638,691874182.0325166,8586156875.333361,10731655245.754349
40.544702849929415,1.2719969982626874e+16,1.2722436727381072e+16,2442659336241.2544,30891696.17220351,89458694.27866934,828220185.1969011,10278189034.539015,12858658336.910538
45.59917313492236,1.3434359145596692e+16,1.3436967666545902e+16,2579845925855.1147,36729992.55779064,106365706.70726556,985500177.657832,12230000531.9805,15316426958.688765
51.1590904484146,1.4150047725630032e+16,1.4152798956605548e+16,2717282046033.4585,43422617.47462623,125746752.15050766,1166047968.6476793,14470550846.97283,18143161314.547596
57.27499949325607,1.4861608985713724e+16,1.4864502890546326e+16,2853925581938.5415,51054622.76365408,147848130.37922716,1372258625.9361913,17029559446.337912,21378529833.829353
64.00249944258168,1.5562916779914974e+16,1.5565952219388856e+16,2988600108888.9507,59710858.31980242,172915556.34533867,1606549486.297602,19937022051.328293,25063167051.549107
71.40274938683986,1.6247362526483574e+16,1.6250537165897518e+16,3120036558445.7188,69474284.11105144,201189272.00366944,1871319737.5542133,23222709209.57597,29238163015.79389
79.54302432552385,1.6908110484406618e+16,1.6911420749165564e+16,3246922240038.653,80424331.23663591,232899300.14740685,2168911816.8167167,26915687429.40442,33944596007.11257
88.49732675807624,1.7538382463106422e+16,1.7541823548185868e+16,3367955514736.798,92635464.57781456,268261282.03250074,2501578763.8036666,31043914225.385937,39223174994.2883
98.34705943388387,1.813176103107847e+16,1.8135326968413468e+16,3481904021764.534,106176126.91613476,307473421.0333564,2871462677.956293,35633986070.59704,45114214909.09589
109.18176537727226,1.868249721429283e+16,1.868618099864455e+16,3587663765485.0933,121108255.87607606,350715078.42255425,3280588191.0232353,40710997485.28505,51657177240.617386
121.09994191499949,1.9185804964994196e+16,1.918959873800067e+16,3684315665377.2817,137487552.715732,398147559.71714336,3730879452.7977643,46298841002.58054,58891985497.71885
134.20993610649944,1.9638121277401372e+16,1.9642016562408308e+16,3771175505460.1255,155364628.92947108,449917429.8743075,4224199835.9243555,52420641352.63843,66859378211.50334
148.6309297171494,2.003730892928079e+16,2.004129690754656e+16,3847832867813.6685,174787069.08934385,506162488.31374764,4762419268.640949,59099605360.50341,75602423722.36385
164.49402268886433,2.0382779640511576e+16,2.0386851454145944e+16,3914174783128.457,195802318.5316296,567020131.2981704,5347506010.748556,66360160684.59189,85168362084.77728
181.94342495775078,2.067551977652609e+16,2.067966684009846e+16,3970390666618.069,218461152.83334807,632637399.1013665,5981637241.010449,74229327921.70995,95610842042.12675
201.13776745352587,2.091800878682433e+16,2.092222308742718e+16,4016956655485.488,242821333.03709456,703181561.0772887,6667318484.509913,82738202365.39894,106992423572.79907
222.25154419887846,2.111403173887549e+16,2.111830610432833e+16,4054599609169.465,268950928.58150375,778849738.4438963,7407498517.244463,91923379630.62616,119387164824.32588
245.47669861876633,2.1268400119392776e+16,2.1272728436579172e+16,4084243493865.097,296930732.3768004,859875898.0309513,8205664609.427472,101828137323.8253,132883083945.47858
271.024368480643,2.1386607374767996e+16,2.1390984744780296e+16,4106943234785.2783,326855226.19455814,946533647.9174927,9065903538.85042,112503192003.92046,147584293080.61304
299.1268053287073,2.1474454996783744e+16,2.1478877820118204e+16,4123812912132.6826,358831689.5674655,1039133656.9046277,9992917028.546923,124006890661.88596,163612649301.60916
330.03948586157804,2.1537689146206056e+16,2.1542155138781636e+16,4135955980697.1494,392977267.46220726,1138015162.848078,10991985812.422064,136404764795.23145,181108851828.91837
364.0434344477359,2.158168556574554e+16,2.1586193713819984e+16,4144404762624.128,429414081.14643234,1243531814.3224325,12068883393.37445,149768460276.81042,200233022243.91306
401.44777789250946,2.161121197276098e+16,2.1615762440673024e+16,4150074818880.858,468262724.629286,1356032837.1048179,13229747200.112457,164174138624.00143,221164911788.59558
442.5925556817604,2.1630283874014316e+16,2.1634877882136896e+16,4153737260875.6406,509634674.9181233,1475841055.2024937,14480919625.370758,179700504541.3791,244103961806.42133
487.8518112499365,2.1642114639149736e+16,2.1646754330054228e+16,4156009162899.5522,553624214.3238319,1603229498.8312182,15828773098.99446,196426635343.29758,269269479478.14444
537.6369923749302,2.1649146980573104e+16,2.1653835289348864e+16,4157359607315.351,600300406.762165,1738398168.7568963,17279531528.60463,214429765274.08908,296901173009.4956
592.4006916124232,2.1653143495605984e+16,2.1657884036270676e+16,4158127071675.1816,649699515.8789582,1881452080.1023746,18839095778.54059,233783119899.96426,327260225681.0731
652.6407607736655,2.1655310127075864e+16,2.1660107102105756e+16,4158543137277.408,701818059.16708,2032381147.9058414,20512874844.41062,254553821134.5819,360630997393.3495
718.9048368510321,2.1656428159226464e+16,2.166128629449755e+16,4158757836789.7827,756606526.5882833,2191041997.0021043,22305618830.03349,276800814590.05115,397323352326.21967
791.7953205361354,2.1656976156741056e+16,2.166190066043534e+16,4158863070614.3086,813963707.6051842,2357141533.783777,24221246261.13194,300572726619.2445,437675545525.28845
871.9748525897489,2.1657230820324252e+16,2.1662227362030132e+16,4158911974527.394,873731588.759146,2530222170.193483,26262657430.294327,325905547995.55884,482057572201.69824
960.1723378487239,2.165734290537592e+16,2.1662417610695184e+16,4158933498600.672,935690892.3356236,2709648904.227763,28431527238.670418,352820063151.6871,530874890473.4383
1057.1895716335964,2.1657389673394852e+16,2.166254912955432e+16,4158942479622.2427,999557488.0108062,2894598928.4902897,30728074621.283363,381318988835.65424,584572459945.9111
1163.9085287969563,2.165740830400023e+16,2.1662659572824184e+16,4158946057320.6846,1064980078.273238,3084054927.445369,33150810144.517635,411383841901.9476,643639079602.9547
1281.299381676652,2.1657415566501544e+16,2.1662766202223616e+16,4158947451963.4897,1131539695.6983447,3276803621.5809197,35696267958.94249,442971612968.80316,708612045878.6687
1410.4293198443174,2.1657418536973108e+16,2.166287660747515e+16,4158948022393.2407,1198751629.716548,3471441347.0946283,38358732567.12619,476011375739.6181,780082178342.093
1552.4722518287492,2.1657420003173372e+16,2.166299411419617e+16,4158948303952.656,1266070408.2055576,3666388481.9856057,41129974754.53035,510401010038.8408,858699275148.2147
1708.7194770116243,2.165742098766886e+16,2.166312031031664e+16,4158948493008.6807,1332898387.569175,3859914321.8915257,43999014622.89887,546004261179.1042,945178066310.1312
1880.5914247127869,2.165742183763477e+16,2.1663256140129908e+16,4158948656230.5107,1398598348.4137738,4050173555.657644,46951933008.04135,582648399755.0822,1040304734221.8595
2069.6505671840655,2.1657422660117704e+16,2.1663402345306372e+16,4158948814174.7017,1462510247.8701465,4235254778.0540247,49971755522.53671,620122782675.0941,1144944071286.809
2277.615623902472,2.165742348267992e+16,2.1663559633289908e+16,4158948972134.127,1523971943.3420002,4413240503.270038,53038435668.673355,658178643602.0884,1260047346074.0115
2506.3771862927197,2.1657424308168092e+16,2.1663728742287916e+16,4158949130655.4165,1582343284.9438343,4582276933.731345,56128964332.35337,696530451715.2372,1386660952895.662
2758.0149049219917,2.1657425131989796e+16,2.166391047168097e+16,4158949288856.6978,1637032499.8913338,4740650366.1387825,59217631756.83852,734859162665.0732,1525935925053.5925
3034.816395414191,2.165742594721641e+16,2.166410570354868e+16,4158949445407.437,1687523306.7016506,4886865710.95103,62276464007.825645,772817634872.8849,1679138398934.7952
3339.2980349556105,2.165742674608142e+16,2.166431542416377e+16,4158949598816.199,1733400766.4749658,5019721354.60803,65275848241.878845,810038388778.8761,1847661124356.7402
3674.227838451172,2.1657427520525132e+16,2.166454074823504e+16,4158949747535.2563,1774373585.641864,5138373745.625671,68185349263.86582,846143739884.5421,2033036125900.223
4042.6506222962894,2.1657428262533524e+16,2.1664782946570424e+16,4158949890025.654,1810290517.8507159,5242384892.507796,70974703811.39348,880758137291.9147,2236948630366.6523
4447.915684525919,2.165742896445549e+16,2.166504347701672e+16,4158950024818.1084,1841148748.5387428,5331746644.470388,73614959283.06525,913522294713.0951,2461252386985.7817
4893.707252978511,2.165742961933007e+16,2.1665324018099864e+16,4158950150575.899,1867092726.1214635,5406877306.71578,76079701627.64215,944108427918.4835,2707986519654.71
5384.077978276362,2.16574302212131e+16,2.1665626504471148e+16,4158950266157.547,1888402813.56578,5468588776.7548895,78346295199.6909,972235640682.1194,2979394064414.6523
5923.485776103998,2.165743076547995e+16,2.1665953163021636e+16,4158950370674.957,1905474285.485316,5518025722.515059,80397038865.41882,997684271435.9464,3277942360691.025
6516.834353714399,2.165743124907697e+16,2.1666306548398084e+16,4158950463541.731,1918788427.1013546,5556581888.392353,82220131463.1958,1020307874116.9688,3606345481672.7744
7169.5177890858395,2.1657431670693084e+16,2.166668957667459e+16,4158950544506.0986,1928878587.010076,5585801788.127182,83810339907.52469,1040041508977.9116,3967588907742.418
7887.469567994424,2.1657432030829092e+16,2.166710555616326e+16,4158950613664.2476,1936294768.8027453,5607278166.368864,85169277986.27138,1056905202308.9321,4364956667256.3086
8677.216524793868,2.1657432331747664e+16,2.166755821478666e+16,4158950671450.6543,1941570536.3527076,5622556160.339092,86305234593.10701,1071001814890.9365,4802061191401.942
9545.938177273256,2.165743257730069e+16,2.1668051724077496e+16,4158950718605.0405,1945195576.4201365,5633053844.408506,87232535266.05034,1082509119027.2804,5282876154529.438
10501.531995000581,2.165743277264508e+16,2.166859072063945e+16,4158950756117.6885,1947596272.396541,5640005973.97453,87970475539.97438,1091666562016.1329,5811772598493.056
11552.68519450064,2.1657432923871176e+16,2.166918032669385e+16,4158950785158.1533,1949125294.8445022,5644433840.900005,88541920582.1699,1098757888374.9283,6393558669392.583
12708.953713950705,2.165743303758163e+16,2.16698261720059e+16,4158950806994.3613,1950059799.846829,5647140056.139943,88971712617.09991,1104091376832.4346,7033523327945.93
13980.849085345777,2.1657433120465096e+16,2.1670534419899976e+16,4158950822910.768,1950606648.0837448,5648723663.559202,89285055612.03815,1107979795141.7766,7737484430850.992
15379.933993880357,2.165743317891021e+16,2.167131180012927e+16,4158950834134.1646,1950912342.5916245,5649608918.490485,89506048261.15384,1110722195198.946,8511841620236.376
16918.927393268394,2.165743321869617e+16,2.167216565104279e+16,4158950841774.4043,1951075219.1513958,5650080589.6406355,89656509440.38571,1112589337568.2144,9363634502014.25
18611.820132595236,2.1657433244793508e+16,2.16731039726151e+16,4158950846785.9497,1951157745.93744,5650080596.449006,89755189570.75102,1113813904925.2856,10300606642037.107
20474.00214585476,2.165743326123715e+16,2.1674135492553628e+16,4158950849943.6973,1951157747.4188843,5650080600.738905,89817397271.89769,1114585869030.2397,11331275961827.367
22522.40236044024,2.165743327117764e+16,2.167526974303738e+16,4158950851852.5903,1951157748.314432,5650080603.3321905,89855007234.89194,1115052588426.9475,12465012173897.016
24775.642596484264,2.165743327692884e+16,2.167651715034667e+16,4158950852957.0264,1951157748.8325706,5650080604.832592,89876765775.50732,1115322600197.5962,13712121960543.06
27254.206856132692,2.1657433280106052e+16,2.1677889135392836e+16,4158950853567.15,1951157749.1188102,5650080605.661485,89888784031.78294,1115471740281.5552,15083942670517.71
29980.627541745966,2.1657433281887656e+16,2.1679398218359924e+16,4158950853909.2764,1951157749.2793205,5650080606.126272,89888784039.17915,1115550210533.3022,16592945385413.043
32979.69029592056,2.1657433283284916e+16,2.168105812266483e+16,4158950854177.6025,1951157749.4052067,5650080606.490804,89888784044.97842,1115550210605.3257,18252848292682.7
36278.65932551262,2.1657433283312812e+16,2.1682884015793984e+16,4158950854182.9497,1951157749.4077132,5650080606.498071,89888784045.094,1115550210606.7612,20078741394025.473
39907.525258063884,2.165743328331477e+16,2.168489249809196e+16,4158950854183.3374,1951157749.4078913,5650080606.498582,89888784045.1022,1115550210606.8638,22087223689920.29
43899.277783870275,2.1657433283316456e+16,2.168710182847928e+16,4158950854183.6685,1951157749.4080482,5650080606.499017,89888784045.10919,1115550210606.95,24296554075578.473
48290.20556225731,2.165743328331835e+16,2.168953209173614e+16,4158950854184.0195,1951157749.4082146,5650080606.4995165,89888784045.11693,1115550210607.0452,26726817330613.55
53120.22611848305,2.1657433283320364e+16,2.169220538111398e+16,4158950854184.4106,1951157749.4083974,5650080606.500051,89888784045.1254,1115550210607.1487,29400106706433.605
58433.24873033136,2.1657433283322644e+16,2.169514599918196e+16,4158950854184.8345,1951157749.4085982,5650080606.500638,89888784045.13472,1115550210607.2664,32340724772126.047
64277.57360336451,2.1657433283325104e+16,2.1698380678756936e+16,4158950854185.307,1951157749.4088213,5650080606.501279,89888784045.14493,1115550210607.393,35575404344659.32
70706.33096370097,2.1657433283327816e+16,2.170193882592676e+16,4158950854185.834,1951157749.409067,5650080606.501987,89888784045.15616,1115550210607.5342,39133551511774.55
77777.96406007107,2.165743328333078e+16,2.1705852787374788e+16,4158950854186.404,1951157749.4093335,5650080606.502761,89888784045.16861,1115550210607.6885,43047512956768.86
85556.76046607818,2.165743328333406e+16,2.1710158144436556e+16,4158950854187.036,1951157749.4096293,5650080606.5036125,89888784045.1822,1115550210607.8572,47352870015275.664
94113.436512686,2.165743328333768e+16,2.1714894036562e+16,4158950854187.725,1951157749.4099557,5650080606.504578,89888784045.19714,1115550210608.0425,52088762137138.68
103525.78016395462,2.1657433283341664e+16,2.1720103517122656e+16,4158950854188.498,1951157749.410315,5650080606.505601,89888784045.21368,1115550210608.2476,57298242693770.07
113879.3581803501,2.1657433283346028e+16,2.172583394479861e+16,4158950854189.331,1951157749.4107103,5650080606.50674,89888784045.23181,1115550210608.4724,63028670365389.03
125268.29399838512,2.1657433283350868e+16,2.173213741410396e+16,4158950854190.2583,1951157749.4111412,5650080606.507998,89888784045.25197,1115550210608.7212,69332139665952.695
137796.12339822366,2.1657433283356148e+16,2.173907122896268e+16,4158950854191.2686,1951157749.4116185,5650080606.509373,89888784045.27385,1115550210608.9934,76265954519329.94
151576.73573804603,2.1657433283361988e+16,2.1746698423640772e+16,4158950854192.3916,1951157749.4121437,5650080606.51089,89888784045.29803,1115550210609.2915,83893149191581.94
166735.40931185064,2.1657433283368376e+16,2.1755088335770196e+16,4158950854193.616,1951157749.41272,5650080606.512563,89888784045.32452,1115550210609.6216,92283061314639.17
183409.95024303574,2.1657433283375424e+16,2.1764317236672744e+16,4158950854194.97,1951157749.4133532,5650080606.514391,89888784045.3537,1115550210609.986,101511962210134.38
201751.94526733932,2.1657433283383148e+16,2.1774469024713308e+16,4158950854196.4663,1951157749.4140525,5650080606.516424,89888784045.386,1115550210610.385,111663750242940.39
221928.13979407327,2.1657433283391676e+16,2.1785635987985652e+16,4158950854198.1,1951157749.4148195,5650080606.518641,89888784045.42134,1115550210610.8228,122830713506819.2
244121.9537734806,2.1657433283401004e+16,2.1797919643262956e+16,4158950854199.8936,1951157749.415665,5650080606.521087,89888784045.46024,1115550210611.3062,135114368774715.75
268535.1491508287,2.165743328341136e+16,2.181143165883789e+16,4158950854201.8716,1951157749.4165938,5650080606.523773,89888784045.50304,1115550210611.8352,148626384339336.5
295389.6640659116,2.1657433283422664e+16,2.1826294869641944e+16,4158950854204.052,1951157749.4176142,5650080606.526743,89888784045.55003,1115550210612.4204,163489595132042.47
324929.6304725028,2.1657433283435204e+16,2.184264439386908e+16,4158950854206.4507,1951157749.4187405,5650080606.529993,89888784045.60175,1115550210613.0632,179839119346686.28
357423.5935197531,2.16574332834489e+16,2.1860628861253536e+16,4158950854209.081,1951157749.4199731,5650080606.533569,89888784045.65889,1115550210613.7695,197823586717428.0
393166.95287172846,2.165743328346399e+16,2.1880411764165344e+16,4158950854211.9844,1951157749.4213345,5650080606.537515,89888784045.72142,1115550210614.548,217606489614155.25
432484.6481589014,2.1657433283480596e+16,2.1902172943802956e+16,4158950854215.1704,1951157749.4228299,5650080606.54184,89888784045.79031,1115550210615.4016,239367669235146.5
475734.11297479155,2.1657433283498852e+16,2.1926110224990172e+16,4158950854218.6763,1951157749.4244769,5650080606.546606,89888784045.86621,1115550210616.3435,263304950404105.94
523308.52427227073,2.165743328351896e+16,2.1952441214435076e+16,4158950854222.5405,1951157749.4262874,5650080606.551849,89888784045.94958,1115550210617.3774,289635939828874.8
575640.3766994978,2.1657433283541036e+16,2.19814052787925e+16,4158950854226.7876,1951157749.4282787,5650080606.557615,89888784046.04132,1115550210618.514,318600004164227.0
