t(s),Total solute volume 1,Total retention volume 1,Total 1 volume 1,Total 2 volume 1,Total 3 volume 1,Total 4 volume 1,Total 5 volume 1,Total 6 volume 1
1.0,2810460563542488.0,2816513683197713.5,6053119655230.486,0.0,0.0,0.0,0.0,0.0
2.1,4092035940588378.5,4486076732112221.5,8813353221538.623,44624875566.364456,244120703772.27487,5820196596574.963,133105499856614.69,246012996269767.94
3.3100000000000005,4969456690267569.0,5961384157172180.0,10703126021733.691,113782883746.20926,622449969395.4585,14841496770043.213,339366519549301.6,626280091710395.8
4.641000000000001,5635926901311687.0,7401889143266109.0,12138557472494.014,203350090026.75345,1112428112045.5088,26527503940506.605,606581424576667.0,1119398977762698.2
6.105100000000002,6166736141331570.0,8871730723470241.0,13281804838394.725,311896495922.9405,1706232561805.021,40693184106489.47,930562489022592.5,1718438975113433.8
7.7156100000000025,6601073604252542.0,1.0407898158778416e+16,14217273072205.664,439068947068.0702,2401931584055.0283,57294101142808.734,1310322475604548.2,2422149704175126.5
9.487171000000004,6962714098775395.0,1.203702473775122e+16,14996167912390.309,585118993517.5385,3200901469173.8984,76364950816822.77,1746676032500306.8,3232487467283634.0
11.435888100000005,7267507088861282.0,1.3781343062337558e+16,15652625638474.4,750714105472.8268,4106793804645.9873,97995035670978.52,2241682149374062.8,4153648654882651.5
13.579476910000007,7526708660655297.0,1.5661312964940396e+16,16210889399015.605,936850140365.1785,5125056638171.328,122316950013239.12,2798387218057018.0,5191627340037309.0
15.937424601000009,7748676955338021.0,1.7696983112096204e+16,16688960803093.31,1144808269055.9678,6262698852799.542,149501076866128.84,3420700327081982.0,6354008284885116.0
18.53116706110001,7939823718067987.0,1.990879900264348e+16,17100649348561.93,1376134670994.8728,7528179099538.368,179753074268936.4,4113336565100449.0,7649880682086972.0
21.384283767210015,8105189531022698.0,2.231814596806464e+16,17456811348168.338,1632633356865.332,8931366544582.645,213313099227508.66,4881799856238743.0,9089822670326140.0
24.522712143931017,8248812526161718.0,2.494775858896533e+16,17766144056166.137,1916367384103.0098,10483547531046.557,250456157986111.47,5732391423091639.0,1.0685932422754504e+16
27.97498335832412,8373976159263463.0,2.782206224671983e+16,18035719319372.457,2229665959103.546,12197464445651.324,291493262820568.6,6672236607306793.0,1.2451893367604838e+16
31.772481694156536,8483382286107193.0,3.096748244114634e+16,18271356345389.113,2575136022232.086,14087379110940.85,336773220547249.94,7709326077326843.0,1.4403066985686564e+16
35.949729863572195,8579275994939430.0,3.441274270668488e+16,18477890564416.297,2955677494371.6533,16169156210899.127,386684955482061.25,8852569217189092.0,1.6556609814804578e+16
40.544702849929415,8663538076019652.0,3.818916426818904e+16,18659372788419.57,3374501687550.98,18460364029289.297,441660313709034.2,1.011185849405835e+16,1.893161314589672e+16
45.59917313492236,8737755064154900.0,4.2330976414190216e+16,18819220067421.844,3835152568136.189,20980390797348.44,502177322049896.0,1.149814420547347e+16,2.154926505907902e+16
51.1590904484146,8803273298628629.0,4.687564425504706e+16,18960332122762.168,4341530668624.179,23750575535973.332,568763891880010.8,1.3023519388038326e+16,2.4433035238172764e+16
57.27499949325607,8861241314829607.0,5.1864219245647256e+16,19085182649390.895,4897919503753.221,26794352604160.863,642001968965825.2,1.4701314919754326e+16,2.7608883587340176e+16
64.00249944258168,8912643537889748.0,5.73417171555533e+16,19195891884595.066,5509014374499.128,30137409318022.28,722532137983783.8,1.6546205017985148e+16,3.110549414611752e+16
71.40274938683986,8958327374738861.0,6.335752782969488e+16,19294284958360.746,6179953447968.485,33807856029225.89,811058695517676.0,1.8574323451390268e+16,3.4954536213612492e+16
79.54302432552385,8999025217156843.0,6.9965860968422136e+16,19381939283135.93,6916350986395.711,37836407970988.055,908355208775735.6,2.080339086196108e+16,3.919095498228791e+16
88.49732675807624,9035372468692994.0,7.722623219078645e+16,19460223379875.133,7724332566039.068,42256578002736.19,1015270579360515.0,2.325285364024631e+16,4.385329436853805e+16
98.34705943388387,9067922428535492.0,8.52039937838908e+16,19530328934641.773,8610572076795.599,47104879111521.805,1132735632308049.2,2.594403481620663e+16,4.898405512671781e+16
109.18176537727226,9097158665598526.0,9.397091475633194e+16,19593297449688.574,9582330224760.371,52421035153422.24,1261770250299902.5,2.890029742012917e+16,5.463009175747652e+16
121.09994191499949,9123505370779652.0,1.0360581508773366e+17,19650042539958.99,10647494170865.818,58248197831256.62,1403491071356324.0,3.2147220730634268e+16,6.0843052180421384e+16
134.20993610649944,9147336067915710.0,1.1419525938789773e+17,19701368694584.605,11814617826625.518,64633167292148.234,1559119765271747.0,3.5712789756126604e+16,6.767986464477021e+16
148.6309297171494,9168980983366444.0,1.2583431554057126e+17,19747987149359.71,13092962189802.36,71626612972986.7,1729991899311271.2,3.9627598186451304e+16,7.520327690913022e+16
164.49402268886433,9188733312872810.0,1.386273843028224e+17,19790529384186.715,14492534935001.531,79283290404403.45,1917566396928579.5,4.392506489565342e+16,8.348245334264406e+16
181.94342495775078,9206854577171132.0,1.5268910625718723e+17,19829558657900.676,16024128272889.688,87662248583332.98,2123435584091590.5,4.8641663865427016e+16,9.259363629498349e+16
201.13776745352587,9223579221146622.0,1.6814535296640013e+17,19865579913843.195,17699353852878.242,96827021218225.97,2349335805728056.0,5.3817167120926424e+16,1.0262087886361378e+17
222.25154419887846,9239118582462162.0,1.851343096559185e+17,19899048327423.594,19530673203583.523,106845793617054.62,2597158579247293.0,5.949489991279749e+16,1.1365685706626368e+17
245.47669861876633,9253664332709434.0,2.0380765724376896e+17,19930376717608.508,21531421879332.4,117791535205302.9,2868962232373761.5,6.572200692585444e+16,1.258037704190287e+17
271.024368480643,9267391475802336.0,2.243318620460733e+17,19959942004807.598,23715825106194.46,129742085611434.3,3166983947844873.5,7.25497277275315e+16,1.3917434104217165e+17
299.1268053287073,9280460973526944.0,2.468895820051571e+17,19988090865736.996,26099002295422.74,142780179929500.84,3493652106959301.0,8.003367896694347e+16,1.5389292268463683e+17
330.03948586157804,9293022056091968.0,2.716811988097205e+17,20015144709840.926,28696957315548.438,156993396161276.62,3851598786464297.0,8.823413997410776e+16,1.7009673249486986e+17
364.0434344477359,9305214265583538.0,2.989264857970491e+17,20041404080448.86,31526550889277.39,172474004967497.62,4243672217658678.5,9.721633736152778e+16,1.8793721999234182e+17
401.44777789250946,9317169271953914.0,3.28866422038954e+17,20067152566019.688,34605450914324.145,189318698755126.1,4672948961553228.0,1.0705072296695683e+17,2.0758158953625405e+17
442.5925556817604,9329012494192780.0,3.617651635090306e+17,20092660291791.676,37952055910442.336,207628173860659.1,5142745488044525.0,1.178132379641305e+17,2.2921449467260003e+17
487.8518112499365,9340864553350674.0,3.979121827024139e+17,20118187049278.918,41585386187580.07,227506536264398.06,5656628768808166.0,1.2958555417301051e+17,2.5303992509774243e+17
537.6369923749302,9352842578865522.0,4.3762458852455814e+17,20143985109814.44,45524936741331.41,249060498045530.6,6218425401443380.0,1.4245528148705685e+17,2.7928330963729597e+17
592.4006916124232,9365061384987676.0,4.8124963867943e+17,20170301758313.273,49790485352888.2,272398328888078.03,6832228674779090.0,1.5651612786757654e+17,3.0819386163608877e+17
652.6407607736655,9377634529838322.0,5.291674571697595e+17,20197381574254.535,54401848957884.42,297628524681005.3,7502402860797041.0,1.7186799550286547e+17,3.400471965210448e+17
718.9048368510321,9390675265628568.0,5.817939698790345e+17,20225468478245.94,59378581126405.85,324858154029216.2,8233583876256141.0,1.8861699346841085e+17,3.7514825506510675e+17
791.7953205361354,9404297384683996.0,6.395840715517221e+17,20254807554177.55,64739603560701.086,354190843828852.3,9030675296261558.0,2.0687534354156746e+17,4.138345700742656e+17
871.9748525897489,9418615962051892.0,7.030350378527071e+17,20285646648635.305,70502764987093.36,385724367612186.56,9898838522975810.0,2.2676115172705683e+17,4.564799188613749e+17
960.1723378487239,9433747991518314.0,7.72690196615634e+17,20318237740744.52,76684321838396.94,419547805922754.94,1.0843475716929942e+16,2.4839801357361728e+17,5.034984089680669e+17
1057.1895716335964,9449812907740742.0,8.491428729532282e+17,20352838066729.18,83298336861019.05,455738257460099.4,1.1870203889222378e+16,2.7191441658359782e+17,5.553490501402784e+17
1163.9085287969563,9466932982839516.0,9.330406237048366e+17,20389710974085.24,90355994424932.06,494357094164469.06,1.2984818336003984e+16,2.9744289806824736e+17,6.125408715181827e+17
1281.299381676652,9485233581136732.0,1.0250897778839907e+18,20429126470231.863,97864835063657.94,535445773883586.4,1.4193243381031336e+16,3.251189118900544e+17,6.756386492963494e+17
1410.4293198443174,9504843250748962.0,1.1260603015627644e+18,20471361419783.637,105827916818834.34,579021251836194.4,1.5501468191024852e+16,3.5507935296632896e+17,7.452693166245887e+17
1552.4722518287492,9525893625450176.0,1.2367910082597614e+18,20516699333185.215,114242917473007.16,625071067656084.2,1.6915465260929602e+16,3.874606846190967e+17,8.221291340698245e+17
1708.7194770116243,9548519104671348.0,1.3581951397355397e+18,20565429677500.78,123101199821524.0,673548228897982.2,1.844108905764301e+16,4.223966114365521e+17,9.069917052782774e+17
1880.5914247127869,9572856273830242.0,1.491266347592012e+18,20617846627931.7,132386871740549.2,724366064414344.6,2.0083952295425024e+16,4.600152400433829e+17,1.0007169281965905e+18
2069.6505671840655,9599043021613414.0,1.6370851137782943e+18,20674247166635.773,142075883756142.44,777393280899426.6,2.1849277437869188e+16,5.004356730671247e+17,1.1042609768398657e+18
2277.615623902472,9627217305717830.0,1.796825658700069e+18,20734928424404.77,152135218660221.22,832449520700287.8,2.3741721334766124e+16,5.437639888902633e+17,1.2186874115015386e+18
2506.3771862927197,9657515514428908.0,1.9717633999059433e+18,20800184151862.523,162522239673952.97,889301784463471.0,2.5765171473685076e+16,5.900885730093074e+17,1.345179515700229e+18
2758.0149049219917,9690070369006262.0,2.1632830431779484e+18,20870300201662.766,173184274544557.78,947662141863538.1,2.7922513232775256e+16,6.394747877445631e+17,1.4850539551149919e+18
3034.816395414191,9725008312170114.0,2.372887412246621e+18,20945548903860.27,184058521141372.0,1007187198606070.9,3.0215368848679056e+16,6.91958997607789e+17,1.6397758462093256e+18
3339.2980349556105,9762446332341326.0,2.6022071542445537e+18,21026182226018.777,195072363502228.53,1067479806695182.4,3.2643810650118136e+16,7.47542009852419e+17,1.810975309057243e+18
3674.227838451172,9802488183334292.0,2.853011496255719e+18,21112423631256.855,206144183415078.0,1128093484165275.2,3.520605353577386e+16,8.061820454595913e+17,2.0004655589858076e+18
4042.6506222962894,9845219976910066.0,3.1272202744871834e+18,21204458585570.758,217184738884826.6,1188539935768917.0,3.7898134755157944e+16,8.67787426408278e+17,2.2102625642135895e+18
4447.915684525919,9890705153212628.0,3.426917511761402e+18,21302423725254.805,228099154819428.12,1248299924260029.2,4.07135928004396e+16,9.32209250889594e+17,2.442606261415356e+18
4893.707252978511,9938978873992248.0,3.754366880488697e+18,21406394781130.23,238789531307640.34,1306837523753401.0,4.3643161579488376e+16,9.992344278132658e+17,2.699983278772113e+18
5384.077978276362,9990041937814032.0,4.1120294551791263e+18,21516373473235.12,249158120743359.94,1363617490946007.8,4.667450084831868e+16,1.0685795516260561e+18,2.985151068781775e+18
5923.485776103998,1.0043854384394738e+16,4.502584227712443e+18,21632273735964.184,259110958761165.44,1418125127495367.5,4.979198880107363e+16,1.139886210367097e+18,3.301163305799877e+18
6516.834353714399,1.0100329057124034e+16,4.928951923280284e+18,21753907853146.207,268561761036954.25,1469887607823150.5,5.297660732827052e+16,1.2127184248101563e+18,3.65139635880801e+18
7169.5177890858395,1.0159325444645064e+16,5.394322713182935e+18,21880973194154.266,277435824845454.34,1518495345768313.0,5.620595359612511e+16,1.286562986137255e+18,4.039576635861085e+18
7887.469567994424,1.022064431055846e+16,5.90218845221837e+18,22013040647460.055,285673617503512.75,1563621661894016.0,5.94544132301793e+16,1.3608334968115098e+18,4.469808589546075e+18
8677.216524793868,1.0284023642562732e+16,6.456380076373621e+18,22149545895964.996,293233699964958.6,1605038826389705.0,6.269352787044699e+16,1.434878858315789e+18,4.946603244472569e+18
9545.938177273256,1.0349136587671312e+16,7.061110758055504e+18,22289784969906.05,300094644259479.94,1642628607582153.0,6.5892583370612856e+16,1.5079967997605975e+18,5.4749072252998e+18
10501.531995000581,1.0415592066462682e+16,7.721025327331335e+18,22432915569808.98,306255663676953.56,1676385783369681.2,6.901943232530887e+16,1.5794527513860293e+18,6.06013247719091e+18
11552.68519450064,1.048293873745187e+16,8.441256321364211e+18,22577965604872.297,311735790037294.4,1706413702635596.8,7.204154567662545e+16,1.6485039328795359e+18,6.708187176612324e+18
12708.953713950705,1.0550672862924162e+16,9.227486822882728e+18,22723850134243.656,316571594822146.56,1732911871319723.8,7.492726299199864e+16,1.7144279510339e+18,7.425508728677628e+18
13980.849085345777,1.0618250390515188e+16,1.0086020005641714e+19,22869397388093.246,320813639960458.44,1756156572074129.0,7.764718120915875e+16,1.7765545214164127e+18,8.219100213016181e+18
15379.933993880357,1.0685103202411764e+16,1.1023855047832068e+19,23013383764829.367,324522027659458.9,1776476532520341.8,8.017559048353752e+16,1.8342982195793482e+18,9.09657212262283e+18
16918.927393268394,1.0750659011654926e+16,1.2048768845016392e+19,23154576683376.02,327761558745495.9,1794226426501346.5,8.249183826845186e+16,1.887189543676448e+18,1.0066191661497893e+19
18611.820132595236,1.0814363849102966e+16,1.3169402805194525e+19,23291783015167.254,330597070455272.3,1809761333047862.8,8.458148521797053e+16,1.9349011759791002e+18,1.113694212996182e+19
20474.00214585476,1.0875705564400808e+16,1.4395353995985881e+19,23423899700093.258,333089486295872.6,1823415072229097.0,8.643711543122626e+16,1.9772663134842179e+18,1.2318594933047783e+19
22522.40236044024,1.0934236363787772e+16,1.5737270084396282e+19,23549962288010.99,335292974040108.1,1835484593211268.0,8.805868396432248e+16,2.0142864107433713e+18,1.3621796425795244e+19
24775.642596484264,1.098959223567155e+16,1.7206947885903315e+19,23669186777189.324,337253400458043.6,1846221456275400.2,8.945332797359515e+16,2.0461266751702784e+18,1.5058171146480265e+19
27254.206856132692,1.1041507256200438e+16,1.8817435906850595e+19,23781000425396.383,339008040574561.75,1855830187075341.2,9.06346307922792e+16,2.0730990943915566e+18,1.6640442055182449e+19
29980.627541745966,1.1089821250644866e+16,2.058314196324226e+19,23885058250857.105,340586299562733.5,1864472186299098.5,9.16214015403149e+16,2.0956344470143977e+18,1.8382567349892774e+19
32979.69029592056,1.1134480064029986e+16,2.251994769088087e+19,23981243615157.688,342011081320104.7,1872273195327348.8,9.243610293623318e+16,2.1142463420956692e+18,2.0299892500264636e+19
36278.65932551262,1.1175528639353766e+16,2.464533240502941e+19,24069653315263.055,343300409920860.1,1879332162233051.2,9.310311174369178e+16,2.1294915051970621e+18,2.240931555722383e+19
39907.525258063884,1.1213098033139746e+16,2.6978509207222858e+19,24150569617878.246,344468970056589.7,1885729677415547.5,9.364701729006373e+16,2.141930997600336e+18,2.47294637450823e+19
43899.277783870275,1.1247388227508352e+16,2.9540576395121385e+19,24224423240426.38,345529348494657.0,1891534781034391.0,9.409114789110184e+16,2.1520966887971139e+18,2.7280879881652855e+19
48290.20556225731,1.1278648978081614e+16,3.2354687095073055e+19,24291752101635.082,346492888812624.4,1896809657142638.2,9.445646585487477e+16,2.1604661724275512e+18,3.0086218213514478e+19
53120.22611848305,1.1307160923065876e+16,3.544623965762527e+19,24353160634638.176,347370180379227.3,1901612325506345.8,9.476090074564539e+16,2.167447692831207e+18,3.3170450567458824e+19
58433.24873033136,1.1333218779341822e+16,3.8843090856430264e+19,24409283595028.094,348171268208893.0,1905997803008630.0,9.501911437817067e+16,2.1733749105803113e+18,3.656108503433762e+19
64277.57360336451,1.135711784221105e+16,4.257579343545775e+19,24460756984257.484,348905692119778.0,1910018327333054.0,9.524262719242533e+16,2.1785098858150774e+18,4.028840041983167e+19
70706.33096370097,1.1379144295343086e+16,4.667785919291519e+19,24508197179374.44,349582450944829.6,1913723167229100.2,9.544019613344291e+16,2.1830517638112591e+18,4.438570027485971e+19
77777.96406007107,1.1399569219538596e+16,5.1186048641954275e+19,24552188029198.438,350209958137919.44,1917158383201398.2,9.561832370386107e+16,2.1871484172596216e+18,4.888959041124186e+19
85556.76046607818,1.141864574997962e+16,5.614068836181596e+19,24593274731647.902,350796023311884.9,1920366728469520.0,9.578179254376152e+16,2.190908641374025e+18,5.384028352612174e+19
94113.436512686,1.143660861368543e+16,6.158601740308941e+19,24631962837510.316,351347869433586.8,1923387731113559.0,9.593415027865883e+16,2.194413194722613e+18,5.928193408191104e+19
103525.78016395462,1.1453675257464296e+16,6.757056445851912e+19,24668720679794.97,351872180073327.1,1926258005075879.0,9.607810423038398e+16,2.19772377419433e+18,6.5263006105931e+19
113879.3581803501,1.147004788995304e+16,7.414755787311938e+19,24703983771831.99,352375169696651.2,1929011557393692.0,9.621581568431195e+16,2.200889697194066e+18,7.183667622164012e+19
125268.29399838512,1.1485915937501496e+16,8.137537088038794e+19,24738160096705.277,352862657733870.0,1931680245454345.0,9.634910369640426e+16,2.2039525239965335e+18,7.906127405569435e+19
137796.12339822366,1.1501458593703384e+16,8.931800467998374e+19,24771635598381.04,353340149251861.94,1934294205750023.8,9.647957819282742e+16,2.2069490731084918e+18,8.700076216409845e+19
151576.73573804603,1.1516847290174948e+16,9.804561210816758e+19,24804779503221.09,353812910859440.7,1936882269392911.5,9.660872365219747e+16,2.2099133154182277e+18,9.57252577218475e+19
166735.40931185064,1.1532248019071686e+16,1.0763506470268808e+20,24837949322174.95,354286042057971.06,1939472352699759.5,9.673795140669253e+16,2.2128775575337587e+18,1.0531159834938427e+20
183409.95024303574,1.154782349906805e+16,1.1817056593947407e+20,24871495515826.152,354764541783032.06,1942091821453523.0,9.6868633639185e+16,2.215873211238435e+18,1.1584395454323846e+20
201751.94526733932,1.1563735207724202e+16,1.2974431332226703e+20,24905765871664.285,355253370841313.2,1944767832696150.2,9.700212701843586e+16,2.2189313291378028e+18,1.2741449120393327e+20
221928.13979407327,1.1580145309356492e+16,1.424572118583452e+20,24941109656297.61,355757511137300.7,1947527658949305.5,9.713979354364651e+16,2.2220830774123686e+18,1.4012408061579985e+20
244121.9537734806,1.1597218524810926e+16,1.5641964115370567e+20,24977881642535.742,356282023115132.0,1950399002665069.2,9.728301497485422e+16,2.2253600644219e+18,1.5408306919687612e+20
268535.1491508287,1.161512396192544e+16,1.7175227807320788e+20,25016446051805.848,356832101992795.56,1953410304066374.0,9.743320982147744e+16,2.2287947270381678e+18,1.694120997535337e+20
295389.6640659116,1.1634036946596586e+16,1.885869763647316e+20,25057180497870.3,357413134014889.44,1956591049089364.8,9.759184869600309e+16,2.2324206803636337e+18,1.8624299073736173e+20
324929.6304725028,1.1654140878706978e+16,2.070677040157404e+20,25100479984089.46,358030753469147.8,1959972081507007.5,9.776046987666448e+16,2.2362730723400195e+18,2.047196732293296e+20
