t(s),Total solute volume 1,Total retention volume 1,Total 1 volume 1,Total 2 volume 1,Total 3 volume 1,Total 4 volume 1,Total 5 volume 1,Total 6 volume 1
1.0,3138139382654525.5,3150497763475772.5,12358380821239.398,0.0,0.0,0.0,0.0,0.0
2.1,4748943587962327.0,4883915157736633.0,18701923837825.93,10334280828.582556,66256993362.5258,1991873427635.9402,49381992502285.69,64819188732402.664
3.3100000000000005,5986791600337356.0,6316080343099006.0,23576720054284.188,27354152716.45686,175377458278.6865,5272200356249.408,130519124979186.77,169717965760939.9
4.641000000000001,7039838338104412.0,7632102624655448.0,27723746523435.46,50689709829.8827,324989879863.6258,9770261765629.76,241699191308864.97,312695407363422.5
6.105100000000002,7976745234779990.0,8903204278756549.0,31413400272618.902,80515161250.10327,516211249252.1505,15520264192287.428,383801290084430.0,495127363016721.25
7.7156100000000025,8830621007421505.0,1.0167341050084378e+16,34776067430751.12,117226771038.22806,751582219246.7959,22599314426341.49,558759724579211.75,719716127236262.1
9.487171000000004,9619875246130178.0,1.144918646841821e+16,37884247189376.45,161352291098.8173,1034486458790.188,31110025323678.113,769139543675046.4,989981567350084.4
11.435888100000005,1.0355644709274054e+16,1.2767235194573264e+16,40781797449828.77,213516398981.9736,1368929068405.897,41173907103342.32,1017975821589801.1,1310076513688872.5
13.579476910000007,1.1045042965586472e+16,1.413691990226079e+16,43496732305945.98,274425725355.75793,1759440589320.4866,52928536342503.31,1308705117378101.0,1684712684333101.2
15.937424601000009,1.169279239755007e+16,1.5572195131941552e+16,46047649070371.47,344862503407.8552,2211036289648.4277,66526393773324.05,1645137632247776.2,2119135160506972.2
18.53116706110001,1.2302130537754266e+16,1.70864409975851e+16,48447297536570.96,425682791715.1258,2729204772049.563,82134593827278.08,2031451089982387.5,2619122590920840.5
21.384283767210015,1.2875353786438866e+16,1.869303351169937e+16,50704721204220.03,517817596916.52454,3319915172615.2534,99935186278401.47,2472198527116639.5,3191003557891659.5
24.522712143931017,1.3414166679239734e+16,2.040573953634034e+16,52826632737886.82,622276309893.7993,3989639192324.662,120125920502889.11,2972327352813994.5,3841681035543657.5
27.97498335832412,1.3919900362203618e+16,2.2239016106635612e+16,54818274347911.68,740151328757.0383,4745380736331.249,142921256943589.25,3537204204955327.5,4578686476120097.0
31.772481694156536,1.4393689922578446e+16,2.4208254981257604e+16,56684116140911.39,872625823031.2805,5594725694246.195,168554011839513.7,4172655564325417.0,5410204014856023.0
35.949729863572195,1.4836570926382822e+16,2.6329998142056436e+16,58428236296306.195,1020981833543.8533,6545893870802.784,197277093490070.03,4885010266766079.0,6345144743416732.0
40.544702849929415,1.5249558055668744e+16,2.862213853621636e+16,60054630749565.92,1186610751412.0632,7607806170672.792,229365735196556.25,5681154309403499.0,7393211388275902.0
45.59917313492236,1.5633694552003856e+16,3.110411574463258e+16,61567407906778.26,1371025303907.8562,8790161444361.137,265120062788712.44,6568593861218835.0,8564978673966094.0
51.1590904484146,1.599008158887283e+16,3.3797113277698036e+16,62970904316877.14,1575873091465.192,10103523279298.463,304868015020850.5,7555526998083742.0,9871986375032886.0
57.27499949325607,1.6319891905698984e+16,3.672426249363118e+16,64269738364227.05,1802951550075.162,11559415930026.13,348968603885416.75,8650923895329108.0,1.1326845982873246e+16
64.00249944258168,1.662437125128033e+16,3.991085714673255e+16,65468815953199.4,2054224183266.2834,13170428388728.623,397815498248845.2,9864615119299464.0,1.2943361809378778e+16
71.40274938683986,1.6904830768853816e+16,4.3384582011972504e+16,66573300519765.6,2331837893909.6885,14950325507878.559,451840914054376.4,1.1207387650378352e+16,1.4736667214764382e+16
79.54302432552385,1.716263315878119e+16,4.717575873217927e+16,67588558538594.27,2638141248178.9727,16914165100158.447,511519797723064.5,1.2691088344746464e+16,1.6723376566041698e+16
88.49732675807624,1.7399175153437358e+16,5.131761189631802e+16,68520090507127.06,2975703518996.464,19078420036994.645,577374295801440.9,1.4328734688546742e+16,1.8921753544469308e+16
98.34705943388387,1.7615868480985584e+16,5.5846558321467656e+16,69373455978685.04,3347334378181.2856,21461104507337.812,649978512290947.0,1.6134632891129626e+16,2.135189654219739e+16
109.18176537727226,1.7814121078269718e+16,6.080252253951939e+16,70154199576597.06,3756104127850.8794,24081903735105.81,729963564131162.2,1.8124503572568196e+16,2.4035942117110732e+16
121.09994191499949,1.7995319864459114e+16,6.622928155914638e+16,70867783154736.22,4205364375031.6274,26962306539644.332,818022953695607.8,2.031561549412247e+16,2.699828779279964e+16
134.20993610649944,1.8160815943929344e+16,7.217484207079952e+16,71519527524658.67,4698769052668.537,30125740118652.254,914918283823192.1,2.272692793364164e+16,3.0265835872709252e+16
148.6309297171494,1.8311912705033004e+16,7.86918533803392e+16,72114565587081.97,5240295670790.128,33597706308440.492,1021485345118131.9,2.537924240376524e+16,3.386826035885642e+16
164.49402268886433,1.844985694720735e+16,8.583805949260925e+16,72657807389309.86,5834266640813.065,37405918315011.27,1138640606628125.5,2.8295364440103184e+16,3.783829950632538e+16
181.94342495775078,1.857583291588913e+16,9.367679391918395e+16,73153916633938.16,6485370452715.414,41580436503932.555,1267388139466125.8,3.150027614678824e+16,4.221207699344995e+16
201.13776745352587,1.8690958954334468e+16,1.0227752095481382e+17,73607297493241.38,7198682398927.292,46153801286410.58,1408826998569374.5,3.502132007945997e+16,4.7029455141271464e+16
222.25154419887846,1.8796286385637252e+16,1.1171642735447434e+17,74022090206351.73,7979684430585.213,51161160445294.54,1564159080747993.0,3.888839487370945e+16,5.2334424079297496e+16
245.47669861876633,1.889280020317349e+16,1.2207706854595722e+17,74402173798233.94,8834283601566.25,56640387409845.24,1734697467580292.0,4.313416279211496e+16,5.817553123827851e+16
271.024368480643,1.8981421157270932e+16,1.3345107372855626e+17,74751174297171.28,9768828403456.035,62632186011944.695,1921875249559868.0,4.7794269064169704e+16,6.460635606884306e+16
299.1268053287073,1.9063008864509e+16,1.4593891443185258e+17,75072476979497.42,10790122119936.79,69180176136618.59,2127254813019475.2,5.2907572525661704e+16,7.168603545342653e+16
330.03948586157804,1.9138365620293536e+16,1.5965074133340323e+17,75369241383916.64,11905432131391.855,76330953412315.42,2352537553391102.5,5.851638661803157e+16,7.947984591475987e+16
364.0434344477359,1.9208240654910476e+16,1.7470729435232598e+17,75644418072306.45,13122493879227.666,84134114667615.19,2599573956762817.0,6.4666729269999304e+16,8.805984944403414e+16
401.44777789250946,1.927333463095933e+16,1.9124089123802413e+17,75900766341111.05,14449507954431.262,92642239310367.98,2870373965734846.0,7.140857953525168e+16,9.75056105924722e+16
442.5925556817604,1.9334304231545572e+16,2.0939650004919744e+17,76140872290159.4,15895128507169.78,101910815068831.7,3167117514370448.5,7.879613807911813e+16,1.0790499340829738e+17
487.8518112499365,1.9391766731724e+16,2.2933290105645462e+17,76367166825536.77,17468440886527.338,111998094689712.5,3492165079545245.0,8.68880876684566e+16,1.193550478743271e+17
537.6369923749302,1.9446304479881372e+16,2.5122394369033072e+17,76581943307788.6,19178926117083.613,122964868249114.23,3848068051060611.5,9.574784869375582e+16,1.3196299672795888e+17
592.4006916124232,1.9498469241480092e+16,2.7525990418285427e+17,76787374658090.55,21036409510862.832,134874133756413.83,4237578669231055.0,1.0544382340957384e+17,1.4584733494464467e+17
652.6407607736655,1.9548786375863932e+16,3.0164894950277274e+17,76985529807006.72,23050990412867.777,147790646805320.1,4663659214937624.0,1.1604962098584888e+17,1.6113905575909715e+17
718.9048368510321,1.9597758828863972e+16,3.306187130505649e+17,77178389417846.22,25232949805627.055,161780328277037.97,5129490061967295.0,1.2764425358437621e+17,1.7798301890785677e+17
791.7953205361354,1.964587093093446e+16,3.624179873498638e+17,77367860844179.06,27592632280121.66,176909507701786.7,5638476113463635.0,1.4031229147853426e+17,1.965394788261062e+17
871.9748525897489,1.969359199355229e+16,3.973185386404775e+17,77555792292891.44,30140298753326.97,193243979069067.3,6194251042222020.0,1.5414396268957174e+17,2.1698579284501613e+17
960.1723378487239,1.9741379696476984e+16,4.35617047844121e+17,77743986163627.39,32885946323158.27,210847845943708.2,6800678637328435.0,1.6923517969465523e+17,2.3951833203722976e+17
1057.1895716335964,1.9789683255824564e+16,4.776371818450571e+17,77934211525051.11,35839091858363.28,229782134069024.72,7461850426602776.0,1.856874724559308e+17,2.6435462026924573e+17
1163.9085287969563,1.983894635818398e+16,5.237317984242426e+17,78128215669754.28,39008516394850.94,250103152675495.84,8182078595448416.0,2.0360780332772445e+17,2.9173573025814586e+17
1281.299381676652,1.988960983944998e+16,5.742852875455615e+17,78327734663831.62,42401968234252.72,271860590996384.3,8965883058948626.0,2.2310823534667155e+17,3.219289690065961e+17
1410.4293198443174,1.9942114078773364e+16,6.29716051078868e+17,78534502774551.38,46025823908589.555,295095344619660.06,9817971367691780.0,2.443054210579118e+17,3.552308889031878e+17
1552.4722518287492,1.999690106804616e+16,6.904791225527562e+17,78750260620245.39,49884707986137.39,319837077915498.7,1.0743209943063262e+16,2.67319874488833e+17,3.9197066500629094e+17
1708.7194770116243,2.0054416105588548e+16,7.57068928299496e+17,78976761840258.64,53981075145584.66,346101544496763.1,1.174658495143925e+16,2.922749843253782e+17,4.325138835356091e+17
1880.5914247127869,2.011510904910699e+16,8.30022191580697e+17,79215778029257.53,58314761122214.03,373887708033823.25,1.283315094912855e+16,3.192957220363544e+17,4.7726679129892314e+17
2069.6505671840655,2.01794350474912e+16,9.099209822304128e+17,79469101619141.7,62882513083530.914,403174731091554.3,1.4007965275784178e+16,3.485069950022292e+17,5.266810605591158e+17
2277.615623902472,2.024785465362197e+16,9.97395916373904e+17,79738546323303.05,67677514719633.86,433918929966890.2,1.5276006063727002e+16,3.800315921505474e+17,5.81259128514999e+17
2506.3771862927197,2.0320833201233796e+16,1.0931295143279634e+18,80025944682641.97,72688926746836.25,466050828211425.4,1.6642071691508352e+16,4.1398766886625414e+17,6.41560174869329e+17
2758.0149049219917,2.0398839223363812e+16,1.1978597309518019e+18,80333141837236.73,77901469085871.77,499472477190004.5,1.811065950080908e+16,4.5048571772634714e+17,7.082068074131704e+17
3034.816395414191,2.04823422619273e+16,1.3123836780576888e+18,80661986900202.94,83295079208743.77,534055264819249.5,1.9685822344054504e+16,4.8962499244408864e+17,7.818925086766885e+17
3339.2980349556105,2.0571808619768988e+16,1.4375615782532593e+18,81014316228760.28,88844680004278.53,569638426289689.9,2.1371000389770576e+16,5.314893191422529e+17,8.63389952678945e+17
3674.227838451172,2.0667696557264228e+16,1.5743209959375386e+18,81391934507884.72,94520105794606.84,606028568591247.2,2.3168828896685148e+16,5.761423195291867e+17,9.535602103455076e+17
4042.6506222962894,2.0770449438002772e+16,1.723661421012664e+18,81796587757200.31,100286226101579.06,643000462743502.5,2.5080921141816212e+16,6.236220251970139e+17,1.0533629419592305e+18
4447.915684525919,2.0880487132262012e+16,1.8866593066717627e+18,82229929476832.56,106103311813401.58,680299390054785.4,2.7107628695824828e+16,6.739349419002225e+17,1.1638676163121108e+18
4893.707252978511,2.099819538668177e+16,2.0644736993834885e+18,82693478783928.94,111927679825536.42,717645273773927.6,2.9247782696345844e+16,7.270496578265537e+17,1.2862657970415258e+18
5384.077978276362,2.112391299007639e+16,2.2583526436995912e+18,83188569870097.14,117712640135475.3,754738749989100.1,3.1498422380263988e+16,7.82890155036564e+17,1.4218845133326917e+18
5923.485776103998,2.125791662794667e+16,2.4696405972715397e+18,83716292356679.23,123409750025794.9,791269207630063.0,3.3854520269109692e+16,8.413290608744869e+17,1.572200704249985e+18
6516.834353714399,2.1400403421172664e+16,2.699787151735238e+18,84277422530041.8,128970353497756.12,826924657732210.8,3.63087171067737e+16,9.021811674718803e+17,1.7388566913016494e+18
7169.5177890858395,2.1551471298731972e+16,2.9503574208878423e+18,84872346047013.31,134347351415831.94,861403082468029.5,3.885108381117262e+16,9.651976494491686e+17,1.9236765935488425e+18
7887.469567994424,2.171109757081595e+16,3.223044525097837e+18,85500973553262.78,139497111262237.94,894424680033188.4,4.146893207731039e+16,1.0300615163259802e+18,2.1286835563588856e+18
8677.216524793868,2.187911635527086e+16,3.5196846642687473e+18,86162651785941.81,144381389074747.1,925744188535950.0,4.414669944118725e+16,1.0963849364918243e+18,2.3561176237510656e+18
9545.938177273256,2.2055195868321132e+16,3.842275322573408e+18,86856074141845.56,148969105838246.1,955162277681121.1,4.6865937953046824e+16,1.1637091482302292e+18,2.608454053064146e+18
10501.531995000581,2.223881700984646e+16,4.192997175784297e+18,87579196343677.97,153237803322099.9,982534886151275.4,4.960543725296111e+16,1.2315077090374994e+18,2.8884218605981783e+18
11552.68519450064,2.2429255126066156e+16,4.5742402636130406e+18,88329164619308.92,157174607266573.84,1007779401115309.4,5.234151171736235e+16,1.299193801152132e+18,3.1990224124444733e+18
12708.953713950705,2.2625567265873384e+16,4.988634931709425e+18,89102265515677.58,160776554621900.9,1030876760797553.4,5.504847625139158e+16,1.3661321798798244e+18,3.5435479527314043e+18
13980.849085345777,2.282658757967445e+16,5.439087929308257e+18,89893907778820.64,164050198450701.38,1051868925764551.2,5.769932509616461e+16,1.4316560948437082e+18,3.9256001087567124e+18
15379.933993880357,2.303093363094497e+16,5.928823862695647e+18,90698647209465.86,167010485901354.53,1070851688940385.6,6.026661191857062e+16,1.4950891147729308e+18,4.349108641551152e+18
16918.927393268394,2.323702617106521e+16,6.461431955158494e+18,91510264538598.66,169679001497709.16,1087963415231676.8,6.27235074425726e+16,1.5557712450739832e+18,4.818351023789608e+18
18611.820132595236,2.344312424131148e+16,7.040917768650359e+18,92321903663174.55,172081763728439.72,1103370915567422.6,6.5044984195194696e+16,1.6130880757321554e+18,5.337973809898736e+18
20474.00214585476,2.364737622816929e+16,7.671759236513126e+18,93126272707903.17,174246837585963.3,1117254139090004.4,6.720904944793132e+16,1.666501006205906e+18,5.913017177381736e+18
22522.40236044024,2.3847885717155484e+16,8.358966093583549e+18,93915903365321.88,176202060081143.28,1129791587921885.2,6.919792177491243e+16,1.7155759773173924e+18,6.548944399222728e+18
24775.642596484264,2.4042788814353744e+16,9.108141636092143e+18,94683455397116.77,177973157193618.0,1141148240199977.2,7.0999029854856616e+16,1.760007743843215e+18,7.251678268726934e+18
27254.206856132692,2.4230337348960836e+16,9.925545766377513e+18,95422044295602.89,179582458366363.5,1151467303443017.8,7.260571057751115e+16,1.7996366985275418e+18,8.027646548117407e+18
29980.627541745966,2.440898049480675e+16,1.0818158527746482e+19,96125562719005.36,181048301917819.0,1160866397647680.0,7.401750214104035e+16,1.8344557266398385e+18,8.883838278208519e+18
32979.69029592056,2.4577436373309796e+16,1.1793743827686496e+19,96788962472519.02,182385097153322.7,1169437949426992.5,7.523996815328942e+16,1.8646055638745021e+18,9.827872247276356e+18
36278.65932551262,2.473474555638667e+16,1.2860913745715413e+19,97408465209317.45,183603897329864.1,1177252862620243.8,7.628404713462312e+16,1.8903585586694907e+18,1.0868078129129759e+19
39907.525258063884,2.4880300252543332e+16,1.4029194631479607e+19,97981677369110.66,184713268493316.03,1184366087262075.5,7.71649889977563e+16,1.9120923767454185e+18,1.2013589904450757e+19
43899.277783870275,2.5013846133043656e+16,1.5309096981799895e+19,98507597370111.83,185720226098656.25,1190822624451067.8,7.790100256901832e+16,1.9302567033603917e+18,1.3274450379289516e+19
48290.20556225731,2.5135457651297296e+16,1.6712191691841804e+19,98986518414157.27,186631050660987.8,1196662756633937.0,7.8511781614367e+16,1.9453370482815744e+18,1.4661725123968827e+19
53120.22611848305,2.52454914871871e+16,1.8251195583240423e+19,99419845145196.84,187451867106537.66,1201925763444302.2,7.901709013858245e+16,1.9578200733083346e+18,1.618762413083062e+19
58433.24873033136,2.534452555881343e+16,1.9940069065000104e+19,99809853470486.0,188188954525423.25,1206651909193975.2,7.943556712394989e+16,1.9681643504908828e+18,1.7865629971109278e+19
64277.57360336451,2.543329229298057e+16,2.179412841273032e+19,100159427771926.23,188848820535293.5,1210882921036348.8,7.97838614174694e+16,1.976779244716657e+18,1.9710632123133866e+19
70706.33096370097,2.551261437575235e+16,2.3830174571122323e+19,100471807884116.12,189438113767539.06,1214661428947808.5,8.007614177827234e+16,1.9840130051729098e+18,2.173906823844482e+19
77777.96406007107,2.558334932019327e+16,2.6066639755631423e+19,100750370795443.5,189963457143514.75,1218029897502731.8,8.032396141090392e+16,1.990149543370838e+18,2.396907415780405e+19
85556.76046607818,2.5646346521363884e+16,2.8523752615747076e+19,100998461525405.31,190431270940299.97,1221029491873558.2,8.05364054408702e+16,1.9954121328482284e+18,2.642064527171228e+19
94113.436512686,2.5702417747513464e+16,3.122372244288219e+19,101219276915236.75,190847629666100.8,1223699069806258.8,8.072042279651163e+16,1.9999716087707837e+18,2.911581222759101e+19
103525.78016395462,2.5752319838298136e+16,3.4190942906834616e+19,101415797491252.92,191218166748717.22,1226074932635296.8,8.088124218445858e+16,2.0039566066893194e+18,3.2078834029225705e+19
113879.3581803501,2.579674707096474e+16,3.7452216055757914e+19,101590757401804.83,191548051465117.2,1228190134602081.8,8.102278977181102e+16,2.0074638229461425e+18,3.5336411367025488e+19
125268.29399838512,2.583633022703661e+16,4.1036997736120435e+19,101746640741636.16,191841967541521.94,1230074707143750.0,8.114805441029899e+16,2.010566973599497e+18,3.891792271456823e+19
137796.12339822366,2.587163965026549e+16,4.497766607962095e+19,101885693594355.08,192104149938654.28,1231755804400013.0,8.125937523716728e+16,2.0133238406088845e+18,4.285568547847674e+19
151576.73573804603,2.5903190216875684e+16,4.930981518270615e+19,102009943605773.78,192338421756441.7,1233257939782696.8,8.135864940181632e+16,2.0157813553747758e+18,4.718524438140758e+19
166735.40931185064,2.593144686266802e+16,5.407257652208095e+19,102121221750252.48,192548235273781.84,1234603249075725.5,8.144747160451302e+16,2.0179790100999923e+18,5.194568932080764e+19
183409.95024303574,2.5956829933263092e+16,5.930897099607958e+19,102221183400575.56,192736711675235.1,1235811745130445.8,8.152722261941466e+16,2.0199510203243868e+18,5.718000515356239e+19
201751.94526733932,2.597972006362741e+16,6.506629477021468e+19,102311327544092.83,192906677282652.03,1236901550161935.5,8.159911558554779e+16,2.0217276498206216e+18,6.293545616518985e+19
221928.13979407327,2.600046254494855e+16,7.139654236594554e+19,102393013979994.58,193060695980313.47,1237889103646321.0,8.16642585173416e+16,2.0233359608030136e+18,6.926400834126653e+19
244121.9537734806,2.601937113647716e+16,7.835687078958516e+19,102467478330809.36,193201097518873.22,1238789343798697.2,8.172363705285613e+16,2.0248005625006694e+18,7.62227927609756e+19
268535.1491508287,2.6036731754152596e+16,8.60101084640471e+19,102535846568657.75,193330004904394.06,1239615883186493.2,8.177814931193195e+16,2.0261436846134047e+18,8.387461441663314e+19
295389.6640659116,2.6052805624116228e+16,9.442531354398908e+19,102599147434176.39,193449357814068.5,1240381158869361.8,8.182861580182848e+16,2.0273856191561772e+18,9.228851007374311e+19
324929.6304725028,2.606783233494673e+16,1.0367838610464077e+20,102658324456594.95,193560935259918.47,1241096577717065.0,8.18757890043422e+16,2.0285449578260838e+18,1.0154036020963816e+20
