t(s),Total solute volume 1,Total retention volume 1,Total 1 volume 1,Total 2 volume 1,Total 3 volume 1,Total 4 volume 1,Total 5 volume 1,Total 6 volume 1
1.0,4781772169833003.0,4987227353010409.0,205455183177404.2,0.0,0.0,0.0,0.0,0.0
2.1,7343312711342443.0,7666192389684831.0,315513767095202.94,2463375880.9766297,29284932024.141212,1010900011899.3997,5136616712669.366,1186646214716.7961
3.3100000000000005,9400793899781398.0,9824351887436402.0,403915060031328.25,6621933338.572609,78708143819.42714,2685366853832.725,13663894688222.215,3208336004475.427
4.641000000000001,1.1235902126739864e+16,1.1755473333627112e+16,482761976939138.9,12473754257.967232,148247586219.702,5023080850205.15,25546569754175.664,6078858003241.95
6.105100000000002,1.2953432754413144e+16,1.3569276201591192e+16,556557109668534.9,20161127433.516117,239594558712.27664,8081479459297.611,41060789138412.44,9884313225677.48
7.7156100000000025,1.4605788158309322e+16,1.5321037818663806e+16,627551955092171.1,29901257745.1754,355329946850.3559,11946552958939.418,60621502332666.82,14744418766100.014
9.487171000000004,1.6223818069736248e+16,1.7043712175445208e+16,697071989532238.6,41970479787.64606,498736884365.49524,16726958842061.18,84749425081795.58,20805024888688.543
11.435888100000005,1.7827733321111458e+16,1.875930478600522e+16,765985583414923.2,56701880232.05859,673772583035.9193,22553230734497.953,114065415068406.55,28236761212653.78
13.579476910000007,1.943183621272179e+16,2.0483811934557788e+16,834907243832006.4,74488097081.85327,885101608214.4882,29578912091306.855,149294289295887.34,37235686911408.12
15.937424601000009,2.104686227423113e+16,2.222967550113203e+16,904298229513599.4,95786881393.26793,1138161946888.6619,37982720923275.74,191273430469603.78,48024897166098.79
18.53116706110001,2.2681253767841576e+16,2.4007128260637064e+16,974521267560514.6,121128587871.81111,1439253976068.7568,47971440682394.58,240964643013464.3,60856758975183.05
21.384283767210015,2.434190188091731e+16,2.5824988941501476e+16,1045872442153806.6,151125307359.82455,1795648925890.8071,59783433827043.53,299468724747384.25,76015685622627.78
24.522712143931017,2.6034602242500052e+16,2.7691162012588348e+16,1118600766077405.6,186481579572.03476,2215716106092.1035,73692757735043.42,368042613099743.75,93821435490463.94
27.97498335832412,2.7764345429620148e+16,2.9612969066273376e+16,1192920662489598.8,228006732884.17227,2709069451757.503,90013903485978.44,448119144609068.9,114632849883972.86
31.772481694156536,2.9535507669177224e+16,3.159737949553719e+16,1269020158544659.8,276628961473.4117,3286734698581.9067,109107204620089.45,541329602953507.75,138851496581633.62
35.949729863572195,3.135197996199787e+16,3.3651178736949476e+16,1347066433297964.8,333411305776.6405,3961339161622.343,131384994552154.22,649529528360133.6,166923068273993.03
40.544702849929415,3.3217262888925852e+16,3.578109681078137e+16,1427209891151130.2,399569797304.77893,4747327230676.014,157318663710233.88,774829198144016.4,199329271822219.44
45.59917313492236,3.5134472154836284e+16,3.7993911310434776e+16,1509584399885132.0,476493124962.5015,5661193833355.498,187446230547811.66,919671423349023.4,236599414858163.06
51.1590904484146,3.7106795328280424e+16,4.029653381140743e+16,1594326916304994.8,565771467477.1821,6721827697223.67,222385508002936.9,1086735541495041.0,279002918159310.72
57.27499949325607,3.913735542180092e+16,4.269608597651059e+16,1681571624305591.5,669222700179.4033,7950822670760.212,262845865360380.75,1279211851139110.2,326481168533720.75
64.00249944258168,4.12300006910018e+16,4.5199969483740024e+16,1771483871801381.5,788938581065.0088,9373028631563.162,309652869371752.8,1500554898889405.2,378115185462990.1
71.40274938683986,4.338981193753357e+16,4.78159326400323e+16,1864281968551886.0,927339512689.8013,11017204507447.25,363775885452238.3,1753712538545105.5,432405765929276.1
79.54302432552385,4.562321438587975e+16,5.0552135067639256e+16,1960241991784226.8,1087234465009.9005,12916731406542.854,426347877113595.4,2039555472720728.0,488771374269318.9
88.49732675807624,4.7937866558240184e+16,5.34172095358117e+16,2059693008136178.0,1271886856440.2292,15110393999470.133,498670818951512.9,2356381414719211.5,548215454908616.6
98.34705943388387,5.034215292355077e+16,5.642031590219506e+16,2162995268565696.8,1485078966529.2388,17643139160764.66,582195822921513.2,2701650868067729.5,612192800961915.9
109.18176537727226,5.284386522675817e+16,5.9571175810525336e+16,2270483540769983.5,1731153605851.7297,20566555000611.22,678465507412126.5,3074227036019449.0,681836790959158.2
121.09994191499949,5.544928095854817e+16,6.288006941092846e+16,2382427507279690.5,2015055484347.638,23939340040154.13,789054901005575.6,3475320819935346.0,758030828635102.1
134.20993610649944,5.816335798051512e+16,6.635776996232662e+16,2499040125554849.0,2342404496232.4126,27828149878120.594,915549891915588.1,3908063962920731.0,841587447045838.9
148.6309297171494,6.0990281583454184e+16,7.001539220356911e+16,2620501133563962.5,2719593900175.045,32308736793223.1,1059557716764554.9,4376692420704590.5,933331018388449.0
164.49402268886433,6.393368449893706e+16,7.38641373669269e+16,2746966504295022.0,3153892868671.707,37467136063166.07,1222731066498828.0,4886000982601766.0,1034133285662382.1
181.94342495775078,6.699646252027436e+16,7.791493029474192e+16,2878560526119959.5,3653542225553.3125,43400766155299.445,1406797589553140.5,5441121684422981.0,1144933665990576.0
201.13776745352587,7.0180325295596184e+16,8.21779593027007e+16,3015356506075558.5,4227838211095.3604,50219383197158.27,1613592287757513.5,6047483931755313.0,1266754060107913.2
222.25154419887846,7.348520804982885e+16,8.666214440533773e+16,3157351499608519.0,4887199371934.636,58045833952025.59,1845090515403629.0,6710849775288386.0,1400711531884420.2
245.47669861876633,7.690863028273814e+16,9.137457242750429e+16,3304438763792133.5,5643210526469.565,67016538367715.336,2103438950418570.8,7437374308811650.0,1548030372849587.2
271.024368480643,8.044506698129398e+16,9.631994712653926e+16,3456380749597260.0,6508637064067.837,77281624996742.17,2390982494838475.5,8233672293859461.0,1710054344889216.5
299.1268053287073,8.408538952492477e+16,1.0150010769739962e+17,3612785089494999.5,7497402893546.924,89004643751413.67,2710286226652166.5,9106885245165610.0,1888259564516845.8
330.03948586157804,8.781642802075003e+16,1.0691366920921426e+17,3773085802818220.5,8624526114031.05,102361789940066.3,3064152692144216.0,1.0064748043201096e+16,2084268334246916.5
364.0434344477359,9.162069997098146e+16,1.1255583369100078e+17,3936531647620438.5,9906007881824.725,117540590549133.69,3455635655345288.5,1.1115655667514726e+16,2299864151107649.5
401.44777789250946,9.547634110521909e+16,1.1841841181851669e+17,4102183158071030.0,11358671992567.9,134738028136440.05,3888051813693978.0,1.2268730953101626e+16,2537008088302166.0
442.5925556817604,9.935726378906789e+16,1.2449008422379984e+17,4268919458622998.0,12999955473855.434,154158110233935.0,4364992010336177.5,1.3533894166164324e+16,2797856733900937.0
487.8518112499365,1.0323355790423909e+17,1.3075692009118277e+17,4435455494287043.5,14847654144128.705,176008934348926.5,4890333260636616.0,1.4921934972882468e+16,3084781870644392.0
537.6369923749302,1.0707213913610464e+17,1.3720315984832734e+17,4600369888380746.0,16919631788288.09,200499351997773.1,5468252611785353.0,1.6444587139602016e+16,3400392088668417.5
592.4006916124232,1.1083763977364323e+17,1.4381225810978645e+17,4762143216706822.0,19233507337674.883,227835399668770.12,6103243590670196.0,1.8114606085949524e+16,3747556535810368.5
652.6407607736655,1.1449352604364842e+17,1.5056817121304115e+17,4919206010997153.0,21806340923423.348,258216736772621.94,6800135838943864.0,1.9945849214891436e+16,4129431026864457.0
718.9048368510321,1.1800341199155248e+17,1.574568589525225e+17,5069995202742289.0,24654346150453.56,291833402117345.75,7564118503194562.0,2.195335875367104e+16,4549486753094291.0
791.7953205361354,1.2133252193470354e+17,1.6446795130415635e+17,5213016946090354.0,27792661163075.176,328863257279363.06,8400768010138964.0,2.415344663861689e+16,5011541856164258.0
871.9748525897489,1.2444923195384752e+17,1.7159650835027517e+17,5346912832668271.0,31235213368874.67,369470508806704.1,9316080941392508.0,2.656378074389393e+16,5519796156297164.0
960.1723378487239,1.2732659805621493e+17,1.7884477752325702e+17,5470525530763565.0,34994710206932.035,413805670916883.1,1.0316512735179152e+16,2.9203471467080188e+16,6078869352895371.0
1057.1895716335964,1.2994375863824197e+17,1.8622383081445366e+17,5582959022339597.0,39082779473390.664,462007228224166.8,1.1409022778687906e+16,3.2093157320333932e+16,6693843047152581.0
1163.9085287969563,1.322870869510007e+17,1.9375495108859155e+17,5683628099425171.0,43510266593098.91,514205074391088.9,1.2601126014247116e+16,3.5255087712467076e+16,7370306970467335.0
1281.299381676652,1.3435097075589806e+17,2.0147063656821098e+17,5772291845367899.0,48287673302552.88,570525542336383.0,1.3900950387509328e+16,3.871320052385397e+16,8114409839943025.0
1410.4293198443174,1.3613811531870803e+17,2.094151101323748e+17,5849066640904600.0,53425694687641.48,631097529192231.9,1.5317298288374676e+16,4.249319135731193e+16,8932915303195444.0
1552.4722518287492,1.376593037588641e+17,2.1764425690329904e+17,5914415861506406.0,58935783478606.52,696058900276585.0,1.6859708630786182e+16,4.662257048891019e+16,9833263479477106.0
1708.7194770116243,1.3893260324066264e+17,2.2622496751800243e+17,5969115771935863.0,64830647522787.81,765562093932279.1,1.8538514555791336e+16,5.113070255483853e+16,1.0823638653318846e+16
1880.5914247127869,1.3998207004714501e+17,2.3523392910571136e+17,6014199896569987.0,71124574509488.48,839777712472663.8,2.0364890217051612e+16,5.604882292672935e+16,1.191304373123358e+16
2069.6505671840655,1.4083607102211274e+17,2.447559711803357e+17,6050886912019421.0,77833482334246.64,918894931756975.9,2.2350879099344132e+16,6.141002360031405e+16,1.311138213245437e+16
2277.615623902472,1.4152539105723387e+17,2.5488212720449917e+17,6080499350333936.0,84974616179820.44,1003117819813959.5,2.4509396196842196e+16,6.724920031187805e+16,1.442954785221729e+16
2506.3771862927197,1.4208132490048749e+17,2.6570760290026544e+17,6104381629575834.0,92565852507215.67,1092657102639937.2,2.685419734920514e+16,7.360295155414667e+16,1.587952451170346e+16
2758.0149049219917,1.4253395226211291e+17,2.7732984013981866e+17,6123825958735360.0,100624621435148.83,1187717505859768.0,2.9399810649376016e+16,8.050941569743896e+16,1.7474493444860396e+16
3034.816395414191,1.4291073761991877e+17,2.898468413498976e+17,6140012190760423.0,109166491967408.89,1288481178194639.5,3.2161429895746476e+16,8.80080568858841e+16,1.9228957087425864e+16
3339.2980349556105,1.4323561270231576e+17,3.033558339244384e+17,6153968410248302.0,118203556921186.4,1395088785085596.2,3.515476468622614e+16,9.613933074098304e+16,2.1158865042658532e+16
3674.227838451172,1.4352848813496662e+17,3.179523153690865e+17,6166549956460598.0,127742678915617.64,1507618971377600.0,3.8395856115387816e+16,1.049442963542027e+17,2.3281763157775508e+16
4042.6506222962894,1.4380522451510248e+17,3.337294181054388e+17,6178438182187297.0,137783764240766.03,1626068137266037.0,4.1900853707651304e+16,1.1446409794225624e+17,2.5616951856734136e+16
4447.915684525919,1.4407793749204622e+17,3.5077748587471706e+17,6190153560545079.0,148318144516386.47,1750331457168890.2,4.56857556046928e+16,1.2473932804900902e+17,2.8185661566738372e+16
4893.707252978511,1.4435552147325194e+17,3.6918371962875936e+17,6202078183290756.0,159327144957934.47,1880186066506637.2,4.9766108631692936e+16,1.3580925242302891e+17,3.101124570603005e+16
5384.077978276362,1.446442689171515e+17,3.8903174636381216e+17,6214482365192511.0,170780889027696.16,2015277007494979.5,5.415666248639877e+16,1.477108817109797e+17,3.4119392987566336e+16
5923.485776103998,1.449484820887091e+17,4.1040098457681043e+17,6227550924468345.0,182637374405953.1,2155106355931225.5,5.887097032068825e+16,1.6047787654680966e+17,3.753836096579834e+16
6516.834353714399,1.452710039223737e+17,4.3336571943776723e+17,6241405988085105.0,194841851557621.2,2299025910426037.5,6.392092780467449e+16,1.741392798100016e+17,4.129923415064812e+16
7169.5177890858395,1.4561364746955174e+17,4.579938248143748e+17,6256125440396562.0,207326573214208.16,2446234261779342.5,6.931624236229952e+16,1.8871804662524726e+17,4.543620208188542e+16
7887.469567994424,1.4597747492930368e+17,4.843451601274546e+17,6271754909919946.0,220010926314628.97,2595778389402327.5,7.506383205235568e+16,2.0422943233011386e+17,4.99868765900437e+16
8677.216524793868,1.463629994720169e+17,5.1246963718467584e+17,6288316439514735.0,232802111238804.56,2746561730359865.0,8.116715180705795e+16,2.2067917594956285e+17,5.499262967492466e+16
9545.938177273256,1.4677028271355603e+17,5.424050365986654e+17,6305812673786477.0,245596397135387.44,2897359065404969.5,8.762545592913882e+16,2.38061559233313e+17,6.049897058633102e+16
10501.531995000581,1.4719897475077962e+17,5.7417465701147866e+17,6324228579026777.0,258281067149645.38,3046839558495253.5,9.443301078834634e+16,2.5635736273138166e+17,6.655595953629868e+16
11552.68519450064,1.476483143977586e+17,6.077849096019745e+17,6343531453445842.0,270737104126979.03,3193598540010300.0,1.015782803675996e+17,2.7553178497040643e+17,7.321866276862658e+16
12708.953713950705,1.4811710700305795e+17,6.432229982776092e+17,6363669974338188.0,282842621839927.1,3336198083845351.0,1.0904311676283907e+17,2.9553241071103e+17,8.054765312065958e+16
13980.849085345777,1.4860369277539258e+17,6.804548569709802e+17,6384572837521436.0,294476975705298.5,3473215588473371.5,1.1680199815931213e+17,3.162873400087819e+17,8.860956062579214e+16
15379.933993880357,1.4910591512570576e+17,7.194235490235139e+17,6406147397499138.0,305525400340365.3,3603298549676111.0,1.2482136780510635e+17,3.377036165850762e+17,9.747767816010922e+16
16918.927393268394,1.4962109634705392e+17,7.600483670899785e+17,6428278622858949.0,315883927266500.56,3725222603848154.0,1.3305913831927147e+17,3.596661196324695e+17,1.0723262763720902e+17
18611.820132595236,1.5014602675262813e+17,8.022249008609893e+17,6450828629818461.0,325464246520778.5,3837948866366006.0,1.4146443509719386e+17,3.8203710446218214e+17,1.1796309280628168e+17
20474.00214585476,1.5067697276736394e+17,8.458263580999258e+17,6473637029984237.0,334198106321425.4,3940675771748750.5,1.499776589282953e+17,4.046565901812036e+17,1.2976662531500918e+17
22522.40236044024,1.512097090099124e+17,8.907064246464769e+17,6496522308681075.0,342040812734751.4,4032880247315697.5,1.585309491110387e+17,4.273437917904094e+17,1.4275053136638696e+17
24775.642596484264,1.5173957876474595e+17,9.367039229726638e+17,6519284422842905.0,348973413064589.3,4114343314559285.5,1.670491219389848e+17,4.4989977408528346e+17,1.5703284703318378e+17
27254.206856132692,1.5226158616403386e+17,9.836494684698164e+17,6541708761052462.0,355003233758619.4,4185156245263686.0,1.7545114301815862e+17,4.7211145994546566e+17,1.7274341110208234e+17
29980.627541745966,1.5277052168994803e+17,1.0313742211907933e+18,6563571534904705.0,360162597242242.2,4245705216078577.5,1.8365216343657418e+17,4.937570515072826e+17,1.9002504520876365e+17
32979.69029592056,1.5326112017192947e+17,1.0797206848611542e+18,6584646566218881.0,364505749378544.6,4296634852914536.5,1.915661082916552e+17,5.1461281722592845e+17,2.0903485200312733e+17
36278.65932551262,1.537282473011699e+17,1.1285553168009068e+18,6604713299214686.0,368104261816291.94,4338793799529253.0,1.991087521054121e+17,5.344610628747813e+17,2.2994564315898342e+17
39907.525258063884,1.5416710696897446e+17,1.1777824921639762e+18,6623565707161783.0,371041390251244.56,4373167998509960.5,2.0620115220085107e+17,5.5309894767413286e+17,2.5294751022409587e+17
43899.277783870275,1.5457345778201114e+17,1.2273591337144824e+18,6641021593180739.0,373406024625182.7,4400809196158360.0,2.127732440534052e+17,5.7034764246055334e+17,2.7824955260454826e+17
48290.20556225731,1.549438234250529e+17,1.2773091048133092e+18,6656931626695719.0,375286921374969.9,4422766815227147.0,2.1876734086217514e+17,5.860611767597499e+17,3.0608177840303424e+17
53120.22611848305,1.552756787987304e+17,1.3277363077610348e+18,6671187339211972.0,376767841257142.06,4440030549512687.5,2.2414123445897677e+17,6.001342133770496e+17,3.366971953962963e+17
58433.24873033136,1.5556759314373997e+17,1.378835371569061e+18,6683727272336547.0,377924038413359.4,4453488933986813.0,2.2887057853629178e+17,6.125079516646307e+17,3.703741079796629e+17
64277.57360336451,1.5581930989719258e+17,1.4308989277893757e+18,6694540407983242.0,378820286764022.0,4463906082567684.0,2.3295025905418765e+17,6.231734312847843e+17,4.074186607758969e+17
70706.33096370097,1.5603175705956246e+17,1.4843206382555177e+18,6703666613557746.0,379510385463098.6,4471915903181880.5,2.3639452750146294e+17,6.321716603889283e+17,4.4816760040336006e+17
77777.96406007107,1.5620696866122128e+17,1.539593698137893e+18,6711193268241055.0,380037814577438.94,4478029913975067.0,2.3923578709194442e+17,6.39590329337646e+17,4.929913520502901e+17
85556.76046607818,1.563479323748342e+17,1.5973049331902674e+18,6717248716765465.0,380437145649078.4,4482653992637018.0,2.415220760272068e+17,6.455572019997021e+17,5.42297382933474e+17
94113.436512686,1.5645836815462368e+17,1.658125288724609e+18,6721992760334863.0,380735745910672.75,4486108617983044.5,2.433134532735985e+17,6.502307238267598e+17,5.965339063453975e+17
103525.78016395462,1.5654246184811245e+17,1.7227980289004774e+18,6725605213320456.0,380955418124749.1,4488648371804261.0,2.446776450707186e+17,6.537887570860913e+17,6.561939558923052e+17
113879.3581803501,1.566045817691803e+17,1.7921263557095227e+18,6728273728041992.0,381113748113777.8,4490478000152656.5,2.4568541538462314e+17,6.564166261752978e+17,7.218198669041152e+17
125268.29399838512,1.5664900874926867e+17,1.8669622962527483e+18,6730182198542050.0,381225078053674.56,4491764052260354.5,2.4640615956881466e+17,6.582957508916728e+17,7.940082057141373e+17
137796.12339822366,1.5667970795530973e+17,1.9481985344187564e+18,6731500958544593.0,381301140181778.1,4492625830571380.5,2.469041749350617e+17,6.595940320008099e+17,8.734151915982744e+17
151576.73573804603,1.567001600269848e+17,2.0367645349394516e+18,6732379527605152.0,381350871631051.4,4493199949840977.0,2.472359391842625e+17,6.604588447303441e+17,9.607626606487828e+17
166735.40931185064,1.567132694658936e+17,2.1336274024246884e+18,6732942675788586.0,381382748658773.2,4493567948775295.0,2.474485596441493e+17,6.610130541166867e+17,1.0568446258247334e+18
183409.95024303574,1.5672133682844886e+17,2.2397976613438052e+18,6733289229176271.0,381402365326326.1,4493794409317323.0,2.475793615485833e+17,6.613539841853143e+17,1.16253449277764e+18
201751.94526733932,1.5672609322262256e+17,2.3563392164155213e+18,6733493551776138.0,381413931013990.25,4493927926728778.5,2.476564321852882e+17,6.615548585431814e+17,1.27879299705491e+18
221928.13979407327,1.5672877484957053e+17,2.4843825313997194e+18,6733608747650472.0,381420451680086.25,4494003202966204.5,2.4769982868631514e+17,6.616679606940479e+17,1.406676934767487e+18
244121.9537734806,1.5673021851699187e+17,2.6251399296086185e+18,6733670763931389.0,381423962113544.75,4494043728282004.0,2.4772312765067814e+17,6.617286789930664e+17,1.5473487659935534e+18
268535.1491508287,1.5673096044620304e+17,2.779922047744873e+18,6733702635323374.0,381425766194630.75,4494064555035070.5,2.4773502835459053e+17,6.617596879094971e+17,1.702087178078026e+18
295389.6640659116,1.5673132541724954e+17,2.950154768180354e+18,6733718313551278.0,381426653661180.4,4494074800164065.0,2.477407992025076e+17,6.617747191226295e+17,1.8722987046705953e+18
324929.6304725028,1.5673152922451776e+17,3.137393775180669e+18,6733727068593166.0,381427149240579.7,4494080521251814.0,2.4774088378435264e+17,6.617816213174222e+17,2.0595305061152899e+18
