t(s),Total solute volume 1,Total retention volume 1,Total 1 volume 1,Total 2 volume 1,Total 3 volume 1,Total 4 volume 1,Total 5 volume 1,Total 6 volume 1
1.0,3048960015052811.5,3059211791922458.0,10251776869658.717,0.0,0.0,0.0,0.0,0.0
2.1,4685877202687162.0,4701642105972907.0,15755720233739.586,850925.6419036268,5233552.9268471245,148189911.94207454,3635407520.084557,5393370091.549731
3.3100000000000005,6003673325045339.0,6023884537250201.0,20186656215843.137,2289074.3946103663,14078750.18876572,398645200.6078904,9768714486.209326,14372261510.206722
4.641000000000001,7181982194546745.0,7206176915091988.0,24148582644524.56,4315300.63464571,26540848.33236746,751553762.7989061,18405237801.911175,26950253033.540688
6.105100000000002,8287829177938641.0,8315770525395815.0,27866864473666.758,6980681.476482379,42933993.20475106,1215857087.754921,29764304479.623856,43452907246.3902
7.7156100000000025,9354921427662600.0,9386486688420732.0,31454838059135.72,10362768.654680105,63735158.97382507,1805119378.0719514,44177908484.210686,64365573253.66883
9.487171000000004,1.0403292874666268e+16,1.043842775253394e+16,34979865151037.82,14560327.437985422,89551790.88459821,2536617426.537421,62068650612.92308,90303336508.82907
11.435888100000005,1.1446259702837356e+16,1.1484955950934578e+16,38486719861758.445,19692746.060060177,121118173.22668742,3431244365.9972534,83947465679.98581,122008714492.96793
13.579476910000007,1.2493438757195094e+16,1.2535721973146794e+16,42007737709792.555,25901288.14292765,159303132.3005772,4513735761.177077,110419180443.64249,160360121296.33087
15.937424601000009,1.3552245709619772e+16,1.3598168192611056e+16,45567853026347.17,33351369.53059708,205124039.8208801,5813076106.405432,142192445902.62033,206385967528.42374
18.53116706110001,1.462871383720375e+16,1.467835022889718e+16,49187352001227.32,42235589.150476806,259765453.7467825,7363039202.902118,180092880191.7056,261281771746.6662
21.384283767210015,1.572797518047299e+16,1.5781419757830422e+16,52883490520060.35,52777435.094591536,324601911.6725768,9202849228.084389,225079021868.93857,326427586921.419
24.522712143931017,1.6854559274269818e+16,1.6911924280346772e+16,56671498610103.79,65235666.85532756,401224882.1971714,11377963154.77558,278260959301.9828,403402083871.6666
27.97498335832412,1.8012585452745946e+16,1.8074000102676604e+16,60565227040326.5,79909410.40044187,491474099.3688491,13940981365.134806,340921567748.16644,493988957737.97516
31.772481694156536,1.92058871321329e+16,1.9271497057005096e+16,64577565203507.984,97144013.92334501,597473573.6989264,16952695287.850733,414540260696.4266,600172095153.6707
35.949729863572195,2.0438086464889224e+16,2.0508053417159524e+16,68720692126916.65,117337701.11192681,721672505.5205904,20483279202.036972,500819091367.3048,724118762569.2109
40.544702849929415,2.1712625882965684e+16,2.1787127552230496e+16,73006182527299.94,140949021.314549,866891096.0801622,24613627335.905647,601710933276.2285,868154336746.8287
45.59917313492236,2.3032755669283016e+16,2.311198546130218e+16,77444965016369.03,168505026.36004472,1036370823.7504399,29436826089.788834,719449308931.6132,1034735991979.3256
51.1590904484146,2.4401472747157964e+16,2.4485639371074212e+16,82047116283813.05,200609999.60483104,1233828112.3448062,35059734176.64139,856579196736.5227,1226434263430.8171
57.27499949325607,2.582140532888926e+16,2.5910732025629256e+16,86821473240428.08,237954428.81320074,1463509495.0282476,41604621431.84795,1015987815079.4575,1445929599099.8506
64.00249944258168,2.7294640985073732e+16,2.738936422303942e+16,91775054923059.45,281323764.5252767,1730245455.5667784,49210792269.65193,1200933980379.787,1696026700807.0867
71.40274938683986,2.8822501647688336e+16,2.8922869119712948e+16,96912305973760.02,331606361.01708615,2039499240.1036594,58036095855.80309,1415074223976.4768,1979684625423.7305
79.54302432552385,3.0405276869074336e+16,3.0511544654979576e+16,102234199762383.0,389799882.12623465,2397406226.8246293,68258206175.61591,1662483521682.6184,2300057208894.724
88.49732675807624,3.2041934585414556e+16,3.2154363400294228e+16,107737265873287.73,457015390.11120236,2810799046.9738235,80075544932.58382,1947668333626.2542,2660537313345.9897
98.34705943388387,3.3729834838471828e+16,3.3848685364608884e+16,113412627540798.92,534478334.8367261,3287213645.6373534,93707720807.28818,2275569739766.268,3064799443699.6714
109.18176537727226,3.546447501079234e+16,3.5590002401932816e+16,119245145046205.11,623525725.2238568,3834871868.647172,109395370461.28651,2651554812869.328,3516837513404.456
121.09994191499949,3.723929460466778e+16,3.737174234347325e+16,125212759324096.55,725598889.9759527,4462636931.533937,127399308881.96196,3081394974113.376,4020996962544.4785
134.20993610649944,3.904556387414596e+16,3.918515724599138e+16,131286117514440.34,842231414.0429853,5179939230.414267,147998928087.1121,3571230876113.6724,4582002356123.121
148.6309297171494,4.087237484164733e+16,4.1019314352978936e+16,137428542769812.08,975032071.4071128,5996671394.688072,171489823726.18567,4127524303392.798,5204982731226.06
164.49402268886433,4.270674676740353e+16,4.28612018817042e+16,143596388894919.3,1125662874.6190443,6923053325.247683,198180680462.32684,4756998647829.679,5895497361238.433
181.94342495775078,4.453385206707581e+16,4.469595565706313e+16,149739799976180.88,1295812747.0923283,7969470332.37071,228389512564.02435,5466570720637.305,6659564494900.609
201.13776745352587,4.633736339107288e+16,4.650720731470739e+16,155803877399465.8,1487167814.7781172,9146290503.134962,262439439338.37845,6263278038169.526,7503695299227.346
222.25154419887846,4.80999177179611e+16,4.827754991982209e+16,161730240309122.62,1701379911.9126275,10463671103.836792,300654276777.89996,7154207280960.287,8434934943206.81
245.47669861876633,4.9803687956240984e+16,4.9989111473511864e+16,167458947545511.9,1940035568.127859,11931367956.134583,343354342258.37494,8146431314075.077,9460912665467.96
271.024368480643,5.14310456871327e+16,5.162421989595423e+16,172930726027183.12,2204628408.6354394,13558565808.182684,390852985312.42944,9246963791581.69,10589902823140.26
299.1268053287073,5.2965289747696376e+16,5.316613411384049e+16,178089420507184.38,2496538418.909269,15353750914.88326,443454452365.9242,10462741626918.986,11830899268293.96
330.03948586157804,5.439140463186011e+16,5.4599805122713144e+16,182884543583136.94,2817021721.0631127,17324648243.07085,501453737351.57324,11800646047962.213,13193705814546.947
364.0434344477359,5.569680147884861e+16,5.5912619648416984e+16,187273767155705.88,3167214187.1817465,19478243737.239677,565139030670.7955,13267572058217.822,14689045866019.803
401.44777789250946,5.6871984921040296e+16,5.70950694996264e+16,191225164596821.56,3548151211.0685964,21820905910.535713,634797227262.3174,14870553413429.371,16328694291307.41
442.5925556817604,5.7911083982754056e+16,5.814128460018247e+16,194718995806844.12,3960804195.0372353,24358610177.458664,710722674528.3287,16616945381753.44,18125634150967.586
487.8518112499365,5.8812187199327656e+16,5.9049369666024216e+16,197748833990359.3,4406131845.55317,27097254206.398113,793228938871.4655,18514660597135.715,20094239784115.223
537.6369923749302,5.9577433065386136e+16,5.982149545692065e+16,200321869762763.7,4885141460.173027,30043034674.579227,882662882140.1527,20572444735555.938,22250485977846.137
592.4006916124232,6.021282732128392e+16,6.0463715989927384e+16,202458296791808.66,5398952474.987784,33202837900.266975,979419836090.0054,22800169629554.156,24612180595633.754
652.6407607736655,6.0727787024248264e+16,6.098551162363617e+16,204189778794829.34,5948852227.13228,36584582597.94764,1083958241376.8756,25209113445924.504,27199215470971.742
718.9048368510321,6.1134444288800376e+16,6.1399090963792424e+16,205557108461278.8,6536332815.1310835,40197446412.13814,1196811885850.794,27812192689014.93,30033828176660.67
791.7953205361354,6.144677468041143e+16,6.171851674732656e+16,206607276799274.03,7163098630.112595,44051912126.79483,1318597926926.3052,30624110943983.258,33140866234191.37
871.9748525897489,6.167964027430475e+16,6.195874598149206e+16,207390255557542.38,7831036786.54086,48159585770.92582,1450019257652.0935,33661395564818.637,36548046184673.195
960.1723378487239,6.184784964415505e+16,6.213468692487397e+16,207955836572613.94,8542147040.979718,52532765642.97534,1591860442696.4414,36942305666594.71,40286203124317.44
1057.1895716335964,6.196533296909913e+16,6.2260371429161e+16,208350858185229.6,9298433093.999557,57183773900.70638,1744977290074.2007,40486610783621.58,44389531596065.19
1163.9085287969563,6.204450994917238e+16,6.234832061692463e+16,208617079947628.2,10101762306.311527,62124093940.50596,1910280951191.6743,44315255867537.305,48895825129646.375
1281.299381676652,6.209589512950494e+16,6.240914868861423e+16,208789855583959.2,10953704647.6906,67363380078.17535,2088718050086.1929,48449940748321.57,53846727642240.29
1410.4293198443174,6.212794536002769e+16,6.245141181624203e+16,208897620097243.4,11855363053.065224,72908415008.8653,2281249642042.0684,52912946041501.73,59289876655349.984
1552.4722518287492,6.2147127797954344e+16,6.248166678622022e+16,208962118418535.6,12807208260.917465,78762091445.29988,2488823738379.4844,57725336962046.3,65271139847150.34
1708.7194770116243,6.215812925151108e+16,6.250469633739742e+16,208999109299869.94,13808922594.48741,84922455995.93668,2712360310777.854,62908604842153.5,71848280055054.61
1880.5914247127869,6.216417664798539e+16,6.252381927575021e+16,209019442842528.34,14859264626.962238,91381873544.1949,2952723501450.545,68482582666636.26,79081637616093.16
2069.6505671840655,6.216737286000162e+16,6.254123059735903e+16,209030189667816.72,15955951152.38851,98126302350.0772,3210700851994.0054,74465375143991.17,87037389440089.03
2277.615623902472,6.2169013855072424e+16,6.255831974260131e+16,209035707289060.78,17095559951.377392,105134696065.13213,3486979827093.6997,80872811261840.2,95788158894827.62
2506.3771862927197,6.216985373675368e+16,6.257593657746777e+16,209038531276219.7,18273453970.75246,112378537427.99007,3782122017333.209,87717838490306.05,105413696938847.4
2758.0149049219917,6.217030610314125e+16,6.259459346583292e+16,209040052296260.72,19483730131.62389,119821523416.8653,4096534045395.9526,95009838831728.31,116001632264737.61
3034.816395414191,6.217058437399783e+16,6.261460608315355e+16,209040987943915.7,20719198869.932243,127419439403.36615,4430434637935.928,102753856350498.69,127648291585094.44
3339.2980349556105,6.217079193279985e+16,6.263618386059904e+16,209041685831968.53,21971403273.116238,135120276820.43462,4783817890140.301,110949737998978.92,140459594397956.73
3674.227838451172,6.217097563742747e+16,6.265948368159605e+16,209042303513626.88,23230688456.154533,142864659799.23352,5156413341957.553,119591202473634.7,154552029491081.75
4042.6506222962894,6.217115521056887e+16,6.268463942199371e+16,209042907303727.34,24486332044.153072,150586647605.50555,5547644052012.191,128664864443205.67,170053722646084.72
4447.915684525919,6.217133817996551e+16,6.2711777088700504e+16,209043522513271.88,25726744999.877792,158214969688.64618,5956584390421.03,138149253648735.55,187105606467734.72
4893.707252978511,6.217152690479632e+16,6.274102218076172e+16,209044157074675.16,26939748458.80401,165674728166.06192,6381919791425.139,148013880392449.06,205862704230245.28
5384.077978276362,6.217172162979936e+16,6.277250330675095e+16,209044811810836.53,28112926754.233616,172889568864.45844,6821911224219.351,158218411015998.3,226495540404856.62
5923.485776103998,6.217192171049364e+16,6.280635430119032e+16,209045484554775.88,29234049611.588978,179784277740.15143,7274367646241.196,168712028817740.1,249191691350482.88
6516.834353714399,6.217212606721226e+16,6.2842716005423944e+16,209046171676261.62,30291547951.083508,186287706981.82578,7736630156687.295,179433066478805.94,274157490644900.9
7169.5177890858395,6.2172333343748376e+16,6.288173830367824e+16,209046868615233.62,31275018550.115513,192335878595.66714,8205571896918.533,190309003766471.7,301619904754182.25
7887.469567994424,6.217254196655523e+16,6.29235827282328e+16,209047570080857.28,32175724037.39939,197875059281.5464,8677617850308.827,201256926780722.2,331828596182407.1
8677.216524793868,6.2172750178846456e+16,6.296842582160502e+16,209048270166177.75,32987047729.33651,202864557596.8989,9148788461118.89,212184539627660.47,365058192898473.44
9545.938177273256,6.217295607585079e+16,6.301646338048892e+16,209048962466664.16,33704859303.61845,207278972785.22098,9614770299261.283,222991803346968.38,401610784693170.56
10501.531995000581,6.217315764985381e+16,6.30679156600758e+16,209049640231649.25,34327748815.10514,211109633932.6358,10071015737371.377,233573247691491.5,441818669178795.06
11552.68519450064,6.217335284726862e+16,6.3123033567382936e+16,209050296556230.34,34857094242.906136,214365015370.54938,10512871707968.525,243820957325078.1,486047372415528.4
12708.953713950705,6.217353963722693e+16,6.318210581062924e+16,209050924611889.4,35296941897.260185,217070001198.88324,10935735069784.617,253628175127776.84,534698971649738.3
13980.849085345777,6.217371608937879e+16,6.324546689832432e+16,209051517908090.2,35653698649.612465,219263992554.9723,11335229034279.191,262893393912222.06,588215750399701.2
15379.933993880357,6.217388045699453e+16,6.331350580146431e+16,209052070571693.53,35935657704.17386,220997991191.76987,11707391719676.312,271524729382216.56,647084219147211.5
16918.927393268394,6.2174031259989336e+16,6.3386675014245576e+16,209052577626114.62,36152401888.52752,222330929819.67935,12048864593672.639,279444290489554.75,711839538215192.4
18611.820132595236,6.21741673612857e+16,6.346549968580609e+16,209053035248088.25,36314145943.45312,223325627304.27014,12357065859498.799,286592200578890.06,783070383060762.2
20474.00214585476,6.21742880292819e+16,6.3550586462759784e+16,209053440977703.7,36431088095.62783,224044800952.05765,12630332345137.951,292929888043176.6,861424296222779.6
22522.40236044024,6.217439297932581e+16,6.364263169460954e+16,209053793857856.1,36512838794.45427,224547553342.1372,12868013777735.326,298442272686475.3,947613574569475.4
24775.642596484264,6.217448238823932e+16,6.3742428722908744e+16,209054094483086.25,36567980734.88847,224886666543.70126,13070505924674.121,303138534277400.7,1042421745337035.5
27254.206856132692,6.2174556878156664e+16,6.3850874104102216e+16,209054344945234.66,36603791723.11045,225106897788.49515,13239214112199.4,307051266417669.75,1146710689780934.8
29980.627541745966,6.217461746908512e+16,6.396897279800666e+16,209054548673935.22,36626135356.348854,225244307170.9047,13376445791545.01,310233984882064.94,1261428479131258.8
32979.69029592056,6.217466550690715e+16,6.409784249019855e+16,209054710194534.2,36639499660.43559,225244481159.75867,13485239282761.422,312757155792517.0,1387617994040819.5
36278.65932551262,6.217470255099081e+16,6.423871792459305e+16,209054834750193.78,36639521490.10429,225244615330.1238,13569144270591.795,314703104840303.56,1526426405604248.5
39907.525258063884,6.217473029119463e+16,6.43929550126914e+16,209054928022830.56,36639537837.098595,225244715802.6656,13631976498385.898,316160328088608.9,1679115604633276.8
43899.277783870275,6.2174750422114936e+16,6.4562036359253944e+16,209054995710293.78,36639549700.026596,225244788715.06168,13677572819662.523,317217811099208.56,1847073673171379.0
48290.20556225731,6.217476455029203e+16,6.47475785082774e+16,209055043214355.06,36639558025.60464,225244839886.058,13709572410068.658,317959954764836.44,2031827503198190.5
53120.22611848305,6.217477411927699e+16,6.4951341598343656e+16,209055075388756.38,36639563664.50125,225244874544.0676,13731245230627.016,318462597003667.4,2235056677005464.2
58433.24873033136,6.21747803605043e+16,6.517524188801236e+16,209055096374028.44,36639567342.38725,225244897149.23544,13745380682774.621,318790430433170.2,2458608735553705.5
64277.57360336451,6.217478447554869e+16,6.5421358716405416e+16,209055110210302.03,36639569767.33733,225244912053.55878,13745381582748.502,318995887361632.94,2704515977220289.5
70706.33096370097,6.217478932377944e+16,6.569186159232931e+16,209055126511813.78,36639572624.34581,225244929613.41803,13745382642553.273,318995909068159.5,2975013965825110.0
77777.96406007107,6.217478944908061e+16,6.598940940980287e+16,209055126933122.2,36639572698.18449,225244930067.248,13745382669943.678,318995909627402.75,3272561656988925.0
85556.76046607818,6.2174789451825864e+16,6.631671188121518e+16,209055126942352.88,36639572699.80224,225244930077.191,13745382670543.775,318995909639654.8,3599864125633939.0
94113.436512686,6.217478945195481e+16,6.667674459233746e+16,209055126942786.28,36639572699.878204,225244930077.65787,13745382670571.973,318995909640230.2,3959896836626340.0
103525.78016395462,6.217478945204239e+16,6.707278056861643e+16,209055126943080.28,36639572699.92982,225244930077.9749,13745382670591.111,318995909640620.8,4355932812817047.5
113879.3581803501,6.2174789452137736e+16,6.750842013537178e+16,209055126943401.53,36639572699.986015,225244930078.3206,13745382670611.941,318995909641047.7,4791572379476216.0
125268.29399838512,6.217478945224267e+16,6.79876236501503e+16,209055126943754.25,36639572700.047844,225244930078.70102,13745382670634.926,318995909641515.6,5270775894148827.0
137796.12339822366,6.2174789452358264e+16,6.851474750593705e+16,209055126944143.03,36639572700.11592,225244930079.11893,13745382670660.143,318995909642031.3,5797899749819213.0
151576.73573804603,6.217478945248529e+16,6.909458373463441e+16,209055126944569.66,36639572700.190765,225244930079.5792,13745382670687.912,318995909642597.56,6377735978388565.0
166735.40931185064,6.217478945262504e+16,6.9732403570873144e+16,209055126945039.56,36639572700.273094,225244930080.08557,13745382670718.473,318995909643221.9,7015555814486479.0
183409.95024303574,6.217478945277861e+16,7.043400537218853e+16,209055126945556.0,36639572700.36367,225244930080.64166,13745382670752.055,318995909643907.56,7717157615646840.0
201751.94526733932,6.21747894529477e+16,7.12057673311931e+16,209055126946124.6,36639572700.46334,225244930081.25433,13745382670789.021,318995909644661.8,8488919574480968.0
221928.13979407327,6.2174789453133624e+16,7.2054705458942936e+16,209055126946749.9,36639572700.57296,225244930081.92816,13745382670829.68,318995909645491.6,9337857702043386.0
244121.9537734806,6.217478945333824e+16,7.298853736661003e+16,209055126947438.0,36639572700.69348,225244930082.6684,13745382670874.383,318995909646404.8,1.0271689609504278e+16
268535.1491508287,6.2174789453563336e+16,7.401575242528608e+16,209055126948194.6,36639572700.82612,225244930083.48413,13745382670923.578,318995909647409.7,1.1298904667953474e+16
295389.6640659116,6.2174789453810824e+16,7.514568894172261e+16,209055126949026.78,36639572700.971924,225244930084.38037,13745382670977.691,318995909648513.8,1.2428841184140514e+16
324929.6304725028,6.217478945408316e+16,7.638861905159342e+16,209055126949942.2,36639572701.13246,225244930085.36658,13745382671037.184,318995909649729.2,1.367177129373683e+16
357423.5935197531,6.217478945438264e+16,7.775584210201771e+16,209055126950949.5,36639572701.308876,225244930086.45172,13745382671102.664,318995909651065.75,1.5038994343859324e+16
393166.95287172846,6.217478945471206e+16,7.925978737226035e+16,209055126952057.22,36639572701.5031,225244930087.64453,13745382671174.672,318995909652536.7,1.654293961376962e+16
432484.6481589014,6.21747894550745e+16,8.091412706640526e+16,209055126953275.94,36639572701.71658,225244930088.95712,13745382671253.914,318995909654154.1,1.819727930754937e+16
475734.11297479155,6.217478945547322e+16,8.273390060518778e+16,209055126954616.06,36639572701.951584,225244930090.40076,13745382671341.057,318995909655933.8,2.0017052845929908e+16
523308.52427227073,6.217478945591169e+16,8.473565134686808e+16,209055126956090.5,36639572702.20991,225244930091.98938,13745382671436.91,318995909657890.2,2.2018803587168252e+16
