t(s),Total solute volume 1,Total retention volume 1,Total 1 volume 1,Total 2 volume 1,Total 3 volume 1,Total 4 volume 1,Total 5 volume 1,Total 6 volume 1
1.0,2435946652399795.0,2438352893898794.0,2406241499006.229,0.0,0.0,0.0,0.0,0.0
2.1,3739582186670330.5,3750492231525939.0,3693979755309.693,1670670679.441474,7444731444.735224,130733654769.80281,2487382654889.366,4588833388512.955
3.3100000000000005,4785388129768367.0,4809498099700566.0,4727032543544.998,4488391560.465795,20000867857.510418,351269309568.6975,6682988255488.482,12324190564180.482
4.641000000000001,5716899605709632.0,5759035107904668.0,5647184640822.672,8449247067.795269,37650961545.30094,661343789375.8651,12581843365274.605,23199030190949.85
6.105100000000002,6587437563927211.0,6652884715669077.0,6507106768892.198,13646467438.609287,60810459326.60603,1068306966324.2927,20323798454880.773,37473482625016.28
7.7156100000000025,7423579985307441.0,7518275162525779.0,7333052800761.722,20223081977.344788,90116719162.6982,1583422372904.6929,30123143011596.668,55545219231957.61
9.487171000000004,8240885426955197.0,8371573471493597.0,8140391563205.847,28360849968.087887,126379684972.8912,2221006864382.905,42252246779509.555,77919658796346.45
11.435888100000005,9049455535186618.0,9223845297991560.0,8939101517068.234,38278210941.970215,170572752826.31763,2998277218749.0684,57038643903246.98,105204889202093.98
13.579476910000007,9856343215198974.0,1.0083272034627162e+16,9736149560190.697,50231632409.24298,223838776639.55026,3935464302922.4146,74867202133168.67,138115933022849.69
15.937424601000009,1.066674088536562e+16,1.0956354247999482e+16,10536664791317.143,64518675439.37923,287503728759.9982,5056063882187.092,96184883493661.03,177483728062493.97
18.53116706110001,1.1484620693141318e+16,1.1848571230832106e+16,11344570918673.863,81482152818.00633,363095229090.22565,6387175718335.854,121507171034368.47,224267042637492.5
21.384283767210015,1.2313097871651412e+16,1.276476679880818e+16,12162945185386.357,101515089903.2823,452364650957.2045,7959908962045.202,151425736732101.4,279566456536342.12
24.522712143931017,1.3154637994762436e+16,1.3709381332907578e+16,12994223096967.768,125066291313.77858,557311926405.0754,9809839276904.611,186617068068303.2,344639829485272.3
27.97498335832412,1.4011165198778278e+16,1.4686586331605492e+16,13840305323142.957,152646300432.082,680212101667.9388,11977502052492.43,227851753454118.56,420918713595345.5
31.772481694156536,1.4884099677884722e+16,1.5700348733442694e+16,14702594735979.951,184833462710.01752,823642354970.6097,14508900315645.389,276004021903051.44,510025062785606.0
35.949729863572195,1.5774340349984898e+16,1.67544395125554e+16,15581979287150.44,222279699529.80273,990507724387.925,17455997988080.898,332060985717861.75,613787412153473.2
40.544702849929415,1.6682204877281828e+16,1.7852396992084238e+16,16478772760100.406,265715498901.38226,1184063345811.0596,20877161450955.48,397130892673836.0,734255509072764.6
45.59917313492236,1.7607340201909928e+16,1.8997456078425336e+16,17392626396938.828,315953565623.5329,1407930717451.8655,24837507539867.87,472449604599949.25,873712253695588.5
51.1590904484146,1.8548619608449044e+16,2.0192457495176304e+16,18322427216590.824,373890574209.3128,1666105510324.301,29409116259795.062,559384523174434.56,1034681823991931.9
57.27499949325607,1.9504044827815344e+16,2.143975393262418e+16,19266201312895.15,440506547191.4492,1962954797573.8164,34671072810024.44,659435302939604.5,1219933066401599.5
64.00249944258168,2.0470672293991076e+16,2.274113126843493e+16,20221041011010.39,516861536593.3346,2303202266966.605,40709315746199.47,774230922670821.1,1432477631212257.0
71.40274938683986,2.1444580659589964e+16,2.4097761893488068e+16,21183072779489.48,604089499395.348,2691900930178.922,47616284898299.586,905523003395534.5,1675562882395210.2
79.54302432552385,2.2420892250352204e+16,2.551020376746791e+16,22147478423457.33,703389502331.5674,3134393932045.601,55490381970678.305,1055175625896308.2,1952660247390856.5
88.49732675807624,2.339385513063973e+16,2.6978453857163036e+16,23108576149576.223,816014640878.6201,3636265174814.5635,64435276534737.48,1225152273516603.8,2267450320506717.0
98.34705943388387,2.4356985978765504e+16,2.850205910500378e+16,24059961699193.258,943259291683.7363,4203282516860.313,74559108845176.81,1417500877871184.5,2623806636014094.5
109.18176537727226,2.530326804418606e+16,3.0080282995583936e+16,24994703891539.754,1086445524664.2448,4841337227604.313,85973657655206.33,1634338258010326.8,3025780549088479.0
121.09994191499949,2.6225393725523216e+16,3.171232175491299e+16,25905584243512.906,1246909672809.2158,5556384145876.038,98793555427226.84,1877835507287766.2,3477590088612592.5
134.20993610649944,2.711603798071073e+16,3.339756141727159e+16,26785367045488.03,1425990184465.304,6354387553693.194,113135644335802.55,2150206083852530.0,3983615963588938.5
148.6309297171494,2.7968146734973764e+16,3.5135865253559716e+16,27627084251969.45,1625017946492.2039,7241278060792.646,129118572898473.11,2453698475846469.5,4548408089581726.0
164.49402268886433,2.8775223428297864e+16,3.692788002284046e+16,28424318534336.164,1845310238651.835,8222925670328.325,146862732775174.62,2790595301197513.5,5176706006126554.0
181.94342495775078,2.9531596640613604e+16,3.877534886702599e+16,29171467641997.34,2088169325250.3372,9305133508360.402,166490625543210.2,3163220514518983.5,5873476315874522.0
201.13776745352587,3.0232652323687364e+16,4.068141827998629e+16,29863973801837.188,2354886378686.9194,10493655312320.064,188127727613528.28,3573955984493918.5,6643969728698592.0
222.25154419887846,3.0875015698047948e+16,4.265092653536187e+16,30498503396524.426,2646750947971.715,11794237627700.914,211903886707974.97,4025268052143195.5,7493799406490550.0
245.47669861876633,3.1456670550003556e+16,4.469066150622916e+16,31073064806346.254,2965065549983.396,13212684831441.012,237955236490172.2,4519743802648150.0,8429041101899551.0
271.024368480643,3.1977007606416656e+16,4.680957724623539e+16,31587056193754.008,3311164224860.206,14754941819256.174,266426560791192.72,5060135750801995.0,9456354165987706.0
299.1268053287073,3.2436798765568884e+16,4.9018961213826056e+16,32041240048265.715,3686433145399.303,16427185845504.637,297473981702369.94,5649412570099504.0,1.0583121037416058e+16
330.03948586157804,3.283809982314908e+16,5.133254758825854e+16,32437647098587.832,4092330710366.3486,18235916063393.484,331267794542952.06,6290812535564460.0,1.1817601541129762e+16
364.0434344477359,3.3184090297081504e+16,5.376657648131792e+16,32779418090752.066,4530404090384.193,20188027258100.51,367995235351487.44,6987895650038620.0,1.3169097449407064e+16
401.44777789250946,3.347886422855719e+16,5.633980351324623e+16,33070597140387.15,5002299017020.617,22290853471970.34,407862949392406.0,7744590100685778.0,1.464812248498159e+16
442.5925556817604,3.3727189655613764e+16,5.907346859714518e+16,33315894139644.965,5509759752327.731,24552167874247.234,451098935223580.94,8565228803707444.0,1.6266573380834166e+16
487.8518112499365,3.3934256260683308e+16,6.199123626830566e+16,33520435482357.355,6054616634638.472,26980127270986.86,497953766937656.2,9454572318979746.0,1.8037898742317036e+16
537.6369923749302,3.410543025725826e+16,6.511912203415563e+16,33689521940050.85,6638759301321.973,29583152791640.59,548700941896931.8,1.041781525257702e+16,1.997726414839034e+16
592.4006916124232,3.4246033055954348e+16,6.848541975419119e+16,33828410027366.703,7264094536641.446,32369742064828.895,603636254126766.9,1.1460574255086018e+16,2.210171394239515e+16
652.6407607736655,3.4361156128242708e+16,7.212064399358773e+16,33942129123701.574,7932488565152.605,35348212082583.38,663076144699298.5,1.2588856683245648e+16,2.443033220762859e+16
718.9048368510321,3.445551948102381e+16,7.60574988800256e+16,34035341673826.504,8645694404291.925,38526375486709.63,727355020910783.9,1.3809009752289284e+16,2.6984407214236828e+16
791.7953205361354,3.453337604715479e+16,8.03308816638314e+16,34112248744480.63,9405265537369.908,41911155896301.41,796821559483281.4,1.512765044667335e+16,2.9787604940341732e+16
871.9748525897489,3.45984597782906e+16,8.497792546057979e+16,34176538750294.176,10212457654484.621,45508150062214.26,871834012893669.5,1.6551576529875942e+16,3.286615799305244e+16
960.1723378487239,3.465397178686143e+16,9.003808205998709e+16,34231373764809.332,11068120569907.709,49321146242906.555,952754523832677.4,1.8087658728937276e+16,3.624907637977808e+16
1057.1895716335964,3.470259675769486e+16,9.55532426453909e+16,34279405731981.93,11972582736466.732,53351609586020.98,1039942425800776.9,1.9742713661700628e+16,3.996838620214003e+16
1163.9085287969563,3.474654102370233e+16,1.0156789207850912e+17,34322814077536.453,12925531137005.79,57598146902106.13,1133746475363463.5,2.1523356463813812e+16,4.405940162351288e+16
1281.299381676652,3.47875839709503e+16,1.0812929120987973e+17,34363356487141.0,13925889834167.955,62055965449920.9,1234495932006835.5,2.3435831516851176e+16,4.856103457829996e+16
1410.4293198443174,3.4827135493626096e+16,1.152876814914228e+17,34402425660691.547,14971701172130.348,66716343527139.57,1342490383061824.0,2.5485819333566828e+16,5.351614581080816e+16
1552.4722518287492,3.48662937179489e+16,1.2309650691761e+17,34441106332259.2,16060014575283.693,71566134899625.69,1457988211049862.5,2.7678217658530988e+16,5.897194007427307e+16
1708.7194770116243,3.4905898850783104e+16,1.3161264988420736e+17,34480228461997.84,17186789052939.277,76587334289975.94,1581193625006932.0,3.0016895305311076e+16,6.498040775130146e+16
1880.5914247127869,3.4946580552659384e+16,1.408966798038626e+17,34520414031431.824,18346816808672.414,81756736892776.88,1712242230568002.2,3.2504418264187936e+16,7.159881478871445e+16
2069.6505671840655,3.4988797542462344e+16,1.5101311615789773e+17,34562116165147.6,19533676616634.867,87045730516188.31,1851185199450731.2,3.5141749245784124e+16,7.889024264690278e+16
2277.615623902472,3.503286914918148e+16,1.620307110360596e+17,34605650297758.64,20739726651104.965,92420263513595.58,1997972220095467.0,3.792792412585586e+16,8.692417990046424e+16
2506.3771862927197,3.5078999234181812e+16,1.7402276010104842e+17,34651217804432.234,21956146969294.03,97841033960322.2,2152433569073498.5,4.085971175287104e+16,9.577716714618794e+16
2758.0149049219917,3.5127293354802068e+16,1.8706745531357542e+17,34698922955172.004,23173041538588.85,103263944156676.8,2314261837208560.5,4.393126726776989e+16,1.0553349694514435e+17
3034.816395414191,3.5177770285458388e+16,2.0124829765986045e+17,34748784295416.496,24379608240053.17,108640858038544.5,2482994072098213.0,4.7133793405965704e+16,1.1628597064576426e+17
3339.2980349556105,3.5230369117662428e+16,2.1665459348504243e+17,34800741659470.477,25564382369608.06,113920686110983.4,2657995352439221.5,5.045522906373243e+16,1.2813671414106842e+17
3674.227838451172,3.5284953179816868e+16,2.3338206371352006e+17,34854660042497.26,26715554585974.13,119050802148642.47,2838445075536377.0,5.387998945385586e+16,1.4119805498753363e+17
4042.6506222962894,3.534131199235188e+16,2.5153360095973898e+17,34910331531813.082,27821357979259.895,123978767946469.92,3023327495550688.0,5.738878702980158e+16,1.555934639845774e+17
4447.915684525919,3.5399162429339988e+16,2.7122021485808986e+17,34967476454336.164,28870511176051.89,128654307834737.28,3211428264249081.0,6.0958566412906904e+16,1.7145856545612877e+17
4893.707252978511,3.545815020470194e+16,2.92562210227425e+17,35025744844669.027,29852695721596.695,133031436013490.02,3401338855084948.0,6.456258899409869e+16,1.8894222229695933e+17
5384.077978276362,3.551785273664295e+16,3.156906450920068e+17,35084719274602.676,30759037350109.324,137070601303283.03,3591470742051583.5,6.817070268922574e+16,2.0820770456615856e+17
5923.485776103998,3.5577784354412704e+16,3.407491150998764e+17,35143919996378.473,31582553514701.527,140740681641342.84,3780080997046537.5,7.174982837059743e+16,2.2943395422266672e+17
6516.834353714399,3.5637404675909136e+16,3.6789590643565555e+17,35202813218124.31,32318525305215.777,144020641733047.1,3965310504429935.5,7.526468565851238e+16,2.5281696361654848e+17
7169.5177890858395,3.5696130779156876e+16,3.973065499395046e+17,35260823126896.11,32964752256881.83,146900668924251.6,4145235222702807.0,7.867876615868459e+16,2.7857129153465245e+17
7887.469567994424,3.575335349423196e+16,4.291767941831865e+17,35317347981914.72,33521654812315.76,149382630238828.4,4317929833336700.0,8.195554154679926e+16,3.0693174767578496e+17
8677.216524793868,3.580845774360764e+16,4.6372599474046163e+17,35371780206851.06,33992201815696.152,151479749732637.38,4481541736273235.5,8.505986771215632e+16,3.381552838166695e+17
9545.938177273256,3.5860846364777736e+16,5.01200891835937e+17,35423529921919.13,34381658660820.598,153215486599691.66,4634371777225088.0,8.795951631624168e+16,3.725231367025097e+17
10501.531995000581,3.590996629101501e+16,5.418797212489577e+17,35472050805346.98,34697173430749.336,154621691235706.4,4774956498272400.0,9.062673491291315e+16,4.103432726312859e+17
11552.68519450064,3.5955335405226924e+16,5.860765774510578e+17,35516866619732.875,34947240099011.926,155736213316314.12,4902145340435626.0,9.303971095745512e+16,4.519531854279055e+17
12708.953713950705,3.5996567906750304e+16,6.341459283189394e+17,35557596269478.07,35141095408282.598,156600214154445.53,5015165396549667.0,9.518379932031856e+16,4.977230967894898e+17
13980.849085345777,3.603339574765429e+16,6.864871728325939e+17,35593974975660.75,35288115413516.44,157255477387541.9,5113666318491470.0,9.70523730716697e+16,5.480596001270026e+17
15379.933993880357,3.6065683707189416e+16,7.435491419452116e+17,35625869166642.625,35397276247384.12,157742005705864.38,5197739057628860.0,9.8647177727725e+16,6.034097763015483e+17
16918.927393268394,3.609343605370018e+16,8.058344715220086e+17,35653283058734.12,35476731145796.29,158096135566105.34,5267904340453763.0,9.997811134466218e+16,6.642657936334227e+17
18611.820132595236,3.611679350639582e+16,8.739038249567195e+17,35676355655017.62,35533534592805.94,158349307472966.88,5325070006893090.0,1.0106241403924413e+17,7.311699882064664e+17
20474.00214585476,3.613602028759975e+16,9.483800077211936e+17,35695347955500.766,35573519301555.11,158527517370354.7,5370460165012146.0,1.0192332308481888e+17,8.047204077991348e+17
22522.40236044024,3.615148229745421e+16,1.029952088370554e+18,35710621397991.445,35601308325603.55,158651370294565.75,5405522919745450.0,1.025883218612237e+17,8.855767979921128e+17
24775.642596484264,3.616361863158566e+16,1.1193797089263772e+18,35722609723120.984,35620427880572.33,158736582934666.2,5431826480895674.0,1.030871687084245e+17,9.744670154849326e+17
27254.206856132692,3.6172909562941864e+16,1.2174978197070126e+18,35731787346660.15,35633479262871.36,158794749663960.0,5450955072866635.0,1.0344992236627938e+17,1.0721938726886486e+18
29980.627541745966,3.617984452684247e+16,1.3252220993196408e+18,35738637735009.62,35642330531528.19,158834196740846.88,5464415830853238.0,1.037051761293577e+17,1.17964244766758e+18
32979.69029592056,3.618489348421329e+16,1.443555314530255e+18,35743625117674.89,35648297813543.164,158860790336667.62,5473565748130744.0,1.0387867259345246e+17,1.2977879299911918e+18
36278.65932551262,3.618848432264123e+16,1.5735948389428698e+18,35747172163928.516,35652298324255.94,158878618550215.75,5479564153847280.0,1.0399240283809885e+17,1.4277041095392394e+18
39907.525258063884,3.6190987846450664e+16,1.716541492714751e+18,35749645155940.45,35654968725131.52,158890518959322.84,5483351926879528.0,1.040642128111483e+17,1.5705726449974313e+18
43899.277783870275,3.619271065071422e+16,1.8737098016806958e+18,35751346949694.375,35656750800348.94,158898460520111.34,5485654620507007.0,1.0410786323052934e+17,1.7276932666206733e+18
48290.20556225731,3.619389503541736e+16,2.0465397182365125e+18,35752516890199.195,35657950825400.62,158903808206363.56,5487003709745018.0,1.0413343313879325e+17,1.9004950720766351e+18
53120.22611848305,3.619472430859857e+16,2.2366098102481354e+18,35753336049954.87,35658780016457.29,158907503315185.38,5487768767065635.0,1.0414793060615765e+17,2.0905490669469307e+18
58433.24873033136,3.619533146048253e+16,2.445651914275262e+18,35753935797300.2,35659382381734.734,158910187612537.28,5488193562702893.0,1.041559777240379e+17,2.2995820880222461e+18
64277.57360336451,3.619580925256795e+16,2.6755672647569254e+18,35754407762457.94,35659853097924.28,158912285237630.47,5488430504677612.0,1.0416046397332243e+17,2.5294922344802596e+18
70706.33096370097,3.6196220144997176e+16,2.9284441451111654e+18,35754813643836.17,35660257905212.41,158914089156715.38,5488569875655992.0,1.0416310080075667e+17,2.7823659251290455e+18
77777.96406007107,3.619660502338658e+16,3.2065771506193505e+18,35755193828429.51,35660637083717.21,158915778867735.5,5488662369520374.0,1.0416484904543923e+17,3.0604967025712174e+18
85556.76046607818,3.619699022263688e+16,3.512488197941746e+18,35755574329970.484,35661016578330.73,158917469987402.75,5488735030351127.0,1.0416622119766858e+17,3.36640591743019e+18
94113.436512686,3.619739277722628e+16,3.848949455753358e+18,35755971975193.06,35661413171258.02,158919237301280.0,5488801657423137.0,1.0416747868840392e+17,3.7028654460078597e+18
103525.78016395462,3.619782410099554e+16,4.219008403080306e+18,35756398038740.086,35661838107305.84,158921130918942.78,5488869098401556.0,1.0416875119810378e+17,4.0729226193157427e+18
113879.3581803501,3.619829242786057e+16,4.626015246503617e+18,35756860654110.266,35662299498449.09,158923186989312.72,5488940063742151.0,1.0417010370478112e+17,4.4799275679600876e+18
125268.29399838512,3.619880435530992e+16,5.073652947693296e+18,35757366338332.61,35662803844470.58,158925434476992.25,5489017635854894.0,1.0417156715103984e+17,4.927563212946431e+18
137796.12339822366,3.619936573402383e+16,5.565970139867196e+18,35757920870735.04,35663356909404.336,158927899067908.25,5489102701290450.0,1.0417317196305253e+17,5.419878150291982e+18
151576.73573804603,3.619998231433724e+16,6.107417199049073e+18,35758529931524.13,35663964358425.27,158930606007448.72,5489196131393784.0,1.0417493457921787e+17,5.961322732923826e+18
166735.40931185064,3.6200660012747144e+16,6.7028858058312e+18,35759199365042.086,35664632020409.66,158933581270493.2,5489298822688052.0,1.0417687191289306e+17,6.55678861767021e+18
183409.95024303574,3.620140512779155e+16,7.357752315243576e+18,35759935393012.85,35665366100616.734,158936852509174.62,5489411729586670.0,1.0417900196952661e+17,7.211652134262669e+18
201751.94526733932,3.6202224478641496e+16,8.077925294914083e+18,35760744751444.06,35666173317228.4,158940449661333.53,5489535885393959.0,1.0418134424285069e+17,7.931821822939477e+18
221928.13979407327,3.620312550753501e+16,8.869897617433706e+18,35761634791811.58,35667061002266.375,158944405400227.3,5489672417827014.0,1.0418392000770187e+17,8.723790526399465e+18
244121.9537734806,3.62041163668945e+16,9.740803523036936e+18,35762613567114.9,35668037187419.164,158948755516998.44,5489822562216484.0,1.0418675256905419e+17,9.594692452132508e+18
268535.1491508287,3.620520600201169e+16,1.0698481101115929e+19,35763689913553.016,35669110685502.36,158953539283679.72,5489987674035574.0,1.0418986749837669e+17,1.0552365653601608e+19
295389.6640659116,3.620640423514559e+16,1.1751540673294936e+19,35764873533597.28,35670291173311.42,158958799822405.88,5490169241643454.0,1.0419329287402789e+17,1.16054204129796e+19
324929.6304725028,3.620772185433209e+16,1.290943959647734e+19,35766175083717.57,35671589279115.945,158964584495310.34,5490368899742309.0,1.0419705953511659e+17,1.2763314043839277e+19
357423.5935197531,3.6209170708930696e+16,1.4182564041082216e+19,35767606268764.52,35673016676791.51,158970945323997.9,5490588443855385.0,1.0420120135461486e+17,1.4036432669006543e+19
393166.95287172846,3.621076381331186e+16,1.5582318337164825e+19,35769179944391.06,35674586187971.03,158977939444757.28,5490829846038550.0,1.0420575553574042e+17,1.543618056626418e+19
