t(s),Total solute volume 1,Total retention volume 1,Total 1 volume 1,Total 2 volume 1,Total 3 volume 1,Total 4 volume 1,Total 5 volume 1,Total 6 volume 1
1.0,4781772169833003.0,4987227353010409.0,205455183177404.2,0.0,0.0,0.0,0.0,0.0
2.1,6868873767874603.0,7821150643222280.0,295128641420353.25,230420520887.1997,2738799687160.907,93230637760981.06,456585093758919.25,104363282199389.12
3.3100000000000005,8285147283215291.0,1.024085559450465e+16,355979474541442.2,583600478837.4489,6934759559980.651,231203064263023.34,1105465657748246.4,255541754697845.75
4.641000000000001,9369564904356852.0,1.2536746945010594e+16,402571998369844.9,1040166232386.8756,12358013145715.145,406835396813807.5,1901987438385510.2,442389027706471.3
6.105100000000002,1.0241072624167518e+16,1.4824453173739584e+16,440016789543469.6,1593928950637.0142,18935381865471.504,618523162379071.6,2841262911833282.0,663048375000136.1
7.7156100000000025,1.0957316195060184e+16,1.716923727664211e+16,470790613759198.8,2243169254079.1064,26646683659930.203,866184642887529.2,3927730630216435.0,918325341804749.6
9.487171000000004,1.1552314069915698e+16,1.9616815280662484e+16,496355080049807.7,2988500143376.3374,35499387104969.55,1150511962894421.2,5169007181832242.0,1210139098722000.2
11.435888100000005,1.204882796838202e+16,2.220431205223921e+16,517688148998314.5,3832125715471.543,45519827120541.45,1472740330798404.8,6574626604152899.0,1541077047071498.5
13.579476910000007,1.2463480794490862e+16,2.4965077943037404e+16,535504025728712.25,4777561510797.063,56749890209075.8,1834558548330522.5,8155764261077189.0,1914242861690190.5
15.937424601000009,1.2809225494580684e+16,2.793114921514917e+16,550359235047894.4,5829560317618.256,69246135332493.85,2238084931551927.5,9925201016958538.0,2333202841359869.0
18.53116706110001,1.3096644091379246e+16,3.113466781898232e+16,562708434813359.44,6994139226536.024,83080116392323.05,2685878692612731.5,1.1897386396044444e+16,2801975948513597.0
21.384283767210015,1.333466439287413e+16,3.4608796996900372e+16,572935209553652.6,8278656259159.301,98339293965979.36,3180970945003982.0,1.408856102387231e+16,3325047475371118.0
24.522712143931017,1.353096584816593e+16,3.838837929211365e+16,581369508191483.8,9691908144412.418,115128199159860.7,3726906105440419.0,1.6516920216176686e+16,3907397506834782.0
27.97498335832412,1.3692214203148054e+16,4.2510461790376376e+16,588297726077967.0,11244233150329.69,133569658451878.1,4327788015613669.5,1.920280801921149e+16,4554539934722879.0
31.772481694156536,1.3824202607398854e+16,4.70147571377018e+16,593968767648501.2,12947610800822.97,153805982212571.97,4988327414183154.0,2.216893482512338e+16,5272569930334435.0
35.949729863572195,1.3931944370407402e+16,5.1944080632623576e+16,598598031654895.6,14815756087440.576,176000088129077.94,5713889177376555.0,2.5440614312218068e+16,6068218896750080.0
40.544702849929415,1.4019743767734798e+16,5.734478843647594e+16,602370453291912.9,16864210051301.03,200336581406813.2,6510539212363970.0,2.904601766570754e+16,6948916545919382.0
45.59917313492236,1.4091259504049942e+16,6.326723317574769e+16,605443230819335.2,19110431436414.03,227022847261634.6,7385092019407283.0,3.3016445022342828e+16,7922860120430444.0
51.1590904484146,1.414956777224279e+16,6.9766247962087336e+16,607948534833210.1,21573895524852.6,256290228069521.53,8345160684782481.0,3.738661582142276e+16,8999091025211660.0
57.27499949325607,1.4197226979624318e+16,7.690166670712291e+16,609996289174171.1,24276206421263.71,288395359532000.1,9399211416399934.0,4.219498114108877e+16,1.018757931488206e+16
64.00249944258168,1.4236343409089464e+16,8.473888682683854e+16,611676992020715.5,27241228285247.93,323621731191838.94,1.055662474289432e+16,4.748406208881287e+16,1.1499316634543984e+16
71.40274938683986,1.4268635803873082e+16,9.334947958423474e+16,613064490749377.0,30495239726527.96,362281521465468.8,1.182776527001019e+16,5.33008189031863e+16,1.2946418355223718e+16
79.54302432552385,1.429549663095777e+16,1.0281185311775923e+17,614218614106541.1,34067114172237.14,404717740705424.5,1.3224061548278142e+16,5.969705568069957e+16,1.454223578883893e+16
88.49732675807624,1.4318051467287876e+16,1.13211972829709e+17,615187723748685.4,37988536545856.62,451306806188531.8,1.4758103329043952e+16,6.672990658837427e+16,1.6301428378519692e+16
98.34705943388387,1.4337194430744176e+16,1.2464414783896622e+17,616010236493062.8,42294202168567.85,502460900880571.8,1.6443719328035432e+16,7.446216482541629e+16,1.8240303915227904e+16
109.18176537727226,1.4353654275682458e+16,1.3721188423590702e+17,616717464206455.2,47022140558347.48,558631826043450.9,1.8296134549805904e+16,8.2963056418836e+16,2.0376667560774016e+16
121.09994191499949,1.4368013540544168e+16,1.5102881721270538e+17,617334436438030.0,52213966449366.125,620313978338009.6,2.03320716689784e+16,9.23086988783924e+16,2.273017074356548e+16
134.20993610649944,1.4380742743925528e+16,1.6621972799705878e+17,617881369687076.6,57915211210766.71,688048287940826.5,2.256990312951664e+16,1.0258277735965765e+17,2.5322459895120804e+16
148.6309297171494,1.439222462168389e+16,1.829216540435418e+17,618374708766647.0,64175672175030.14,762426368217889.5,2.5029811317607668e+16,1.138772696368542e+17,2.817737171823621e+16
164.49402268886433,1.44027734943609e+16,2.012851016515386e+17,618827958939999.1,71049789975751.97,844094998204196.0,2.773396488313521e+16,1.2629323801878568e+17,3.132115250813677e+16
181.94342495775078,1.4412650667849582e+16,2.214753708574723e+17,619252347623883.5,78597054266220.27,933760942315754.4,3.0706712500567084e+16,1.399416964678217e+17,3.4782700877028144e+16
201.13776745352587,1.4422076630551484e+16,2.4367400314235578e+17,619657348451367.0,86882437992847.16,1032196109350161.5,3.39747953995387e+16,1.5494455943039597e+17,3.8593835786075144e+16
222.25154419887846,1.4431240703125728e+16,2.68080363214951e+17,620051095883664.6,95976860214969.28,1140243050659345.5,3.756758015362122e+16,1.714356789093866e+17,4.278959244205921e+16
245.47669861876633,1.4440308688864604e+16,2.9491336687472186e+17,620440713917351.0,105957677147151.4,1258820793629314.5,4.151731337657847e+16,1.895619766321491e+17,4.740854899243597e+16
271.024368480643,1.4449428971356788e+16,3.244133677226231e+17,620832578077931.9,116909200623935.6,1388931000943750.2,4.585940013043356e+16,2.0948467853941178e+17,5.24931873017747e+16
299.1268053287073,1.4458737416788474e+16,3.5684421626316275e+17,621232526053536.8,128923242529076.56,1531664438291206.5,5.063270799728958e+16,2.313806591730851e+17,5.809029146912497e+16
330.03948586157804,1.446836136306858e+16,3.92495505715552e+17,621646029092966.0,142099682869155.62,1688207722932265.2,5.587989890640495e+16,2.554439038439907e+17,6.425138816719521e+16
364.0434344477359,1.4478422916776294e+16,4.316850196075484e+17,622078333663541.4,156547058078184.03,1859850312552750.8,6.164779093846074e+16,2.8188709668802906e+17,7.103323335998827e+16
401.44777789250946,1.4489041730319804e+16,4.7476139693992685e+17,622534580775511.8,172383164783219.0,2047991677710181.0,6.798775244824033e+16,3.109433428438676e+17,7.849835049422846e+16
442.5925556817604,1.4500337393759148e+16,5.22107031353473e+17,623019908749961.5,189735672603735.44,2254148581487981.5,7.49561309517636e+16,3.4286803297433664e+17,8.67156258707716e+16
487.8518112499365,1.4512431546535208e+16,5.741412212675963e+17,623539543952027.1,208742737557422.5,2479962366206259.5,8.261471930946598e+16,3.7794085816790624e+17,9.576096759597306e+16
537.6369923749302,1.4525449062029146e+16,6.313235898914205e+17,624098851685607.2,229553593715762.44,2727205980491676.5,9.103125491560005e+16,4.1646796710517254e+17,1.0571806038272618e+17
592.4006916124232,1.4539522826417696e+16,6.941577849262049e+17,624703541527997.1,252329178884329.47,2997791415327704.0,1.0027999508260427e+17,4.5878436419192877e+17,1.1667907868951478e+17
652.6407607736655,1.4554790765175978e+16,7.63195490918285e+17,625359539562165.0,277242602139052.16,3293775251521505.5,1.1044227090242269e+17,5.052563320268203e+17,1.2874571983064238e+17
718.9048368510321,1.4571400831649016e+16,8.390407556605533e+17,626073202721335.8,304479670081265.75,3617364913517858.5,1.2160715520300667e+17,5.562841689593436e+17,1.4203011288023552e+17
791.7953205361354,1.4589511773156232e+16,9.223546545122038e+17,626851351703968.2,334239263932111.8,3970923146297604.0,1.3387214698080195e+17,6.123050393887302e+17,1.5665594260758115e+17
871.9748525897489,1.4609294844561716e+16,1.013860305934806e+18,627701344598809.9,366733612871757.4,4356971259986118.0,1.473439147550884e+17,6.737960120715981e+17,1.7275967804610186e+17
960.1723378487239,1.4630935588965716e+16,1.1143482507165316e+18,628631153393741.5,402188414924287.44,4778190562598538.0,1.6213909377340298e+17,7.412772726325802e+17,1.9049193859066605e+17
1057.1895716335964,1.465463570748109e+16,1.2246822044706524e+18,629649444312088.5,440842763602199.56,5237421484360313.0,1.7838513826476557e+17,8.15315501521916e+17,2.1001901528421434e+17
1163.9085287969563,1.4680615043179294e+16,1.345805189019054e+18,630765663054203.2,482948832123447.1,5737659820957353.0,1.962212292496823e+17,8.965274035812649e+17,2.315245668287878e+17
1281.299381676652,1.4709113703259586e+16,1.4787460430690586e+18,631990125977815.5,528771260276035.56,6282049442986537.0,2.1579923747226883e+17,9.855833684285585e+17,2.552115126357312e+17
1410.4293198443174,1.474039434277363e+16,1.624626305941779e+18,633334118219587.0,578586182257364.2,6873870738669893.0,2.3728473979103978e+17,1.0832112322591178e+18,2.8130414850970317e+17
1552.4722518287492,1.4774744632963572e+16,1.7846674597598858e+18,634809999748627.4,632679827440432.2,7516523981112422.0,2.6085808578908685e+17,1.1902001011257825e+18,3.100505144037469e+17
1708.7194770116243,1.4812479937273714e+16,1.9601985051766897e+18,636431320342690.5,691346620543596.4,8213506746278966.0,2.867155093668234e+17,1.307404182990245e+18,3.417250481951803e+17
1880.5914247127869,1.485394621820067e+16,2.1526638331335296e+18,638212944482392.4,754886703814045.5,8968384461868290.0,3.150702775735044e+17,1.4357465604846106e+18,3.766315647470458e+17
2069.6505671840655,1.4899523198182092e+16,2.3636313399680087e+18,640171187160205.0,823602802503235.1,9784753151371192.0,3.4615386581430765e+17,1.5762228180153992e+18,4.151066057990882e+17
2277.615623902472,1.494962779749417e+16,2.5948007151684664e+18,642323961591168.8,897796357288725.6,1.0666193465751162e+16,3.802171447176052e+17,1.7299044151952617e+18,4.5752321367348416e+17
2506.3771862927197,1.5004717871399608e+16,2.8480118099142984e+18,644690939780853.8,977762854821993.8,1.1616215184508342e+16,4.175315592230838e+17,1.897941673214594e+18,5.042951906261129e+17
2758.0149049219917,1.5065296267250196e+16,3.1252529700545644e+18,647293726840231.6,1063786301970099.6,1.2638191538739186e+16,4.5839027469536474e+17,2.0815662113023521e+18,5.5588191622205254e+17
3034.816395414191,1.513191521950599e+16,3.428669189257716e+18,650156049819025.8,1156132812529226.2,1.373528298446916e+16,5.031092578974799e+17,2.2820926365632602e+18,6.127938077306577e+17
3339.2980349556105,1.5205181096150554e+16,3.7605699067788396e+18,653303961636790.9,1255043309353041.0,1.4910350460353194e+16,5.520282522688438e+17,2.500919252009035e+18,6.755985236734676e+17
3674.227838451172,1.5285759503053308e+16,4.123436239946064e+18,656766060393012.1,1360725392127368.5,1.6165858725593952e+16,6.055115969154061e+17,2.739527504473624e+18,7.449280288758652e+17
4042.6506222962894,1.5374380742518706e+16,4.5199274047222426e+18,660573723894712.1,1473344483411272.8,1.7503771115110208e+16,6.639488267880378e+17,2.999479846509092e+18,8.214866613601792e+17
4447.915684525919,1.5471845607327116e+16,4.952886039689445e+18,664761358598208.4,1593014444497384.5,1.8925437986781184e+16,7.277549774365806e+17,3.282415634831142e+18,9.060603680245176e+17
4893.707252978511,1.5579031470391036e+16,5.42534211131943e+18,669366661251611.1,1719787948551319.5,2.0431482275128444e+16,7.973705012145734e+17,3.5900446334270326e+18,9.995273083224955e+17
5384.077978276362,1.5696898600602088e+16,5.940515044071568e+18,674430890255205.5,1853647010156744.5,2.202168689269067e+16,8.732606826193066e+17,3.92413763368925e+18,1.1028700643693019e+18
5923.485776103998,1.5826496594804454e+16,6.501813691434482e+18,679999142010570.5,1994494194177300.2,2.36948901913657e+16,9.559144183689925e+17,4.2865136493556593e+18,1.2171897435874673e+18
6516.834353714399,1.5968970760625624e+16,7.112833748609848e+18,686120625157534.4,2142145155783706.2,2.544889722845424e+16,1.045842202712583e+18,4.679023094136335e+18,1.343722317990904e+18
7169.5177890858395,1.6125568210781624e+16,7.77735221091969e+18,692848922413686.4,2296323286366125.0,2.728041604281803e+16,1.1435731303563922e+18,5.10352630952625e+18,1.4838576145746573e+18
7887.469567994424,1.6297643331144974e+16,8.499318512999514e+18,700242225506417.8,2456657340580549.0,2.918502934215575e+16,1.2496506985450043e+18,5.561866785924313e+18,1.6391614562908e+18
8677.216524793868,1.6486662156020948e+16,9.282842053507375e+18,708363523151759.5,2622682976171567.5,3.1157212674076972e+16,1.3646271569241736e+18,6.055838420306295e+18,1.8114015549475144e+18
9545.938177273256,1.6694205017610068e+16,1.0132175932023988e+19,717280714881967.6,2793849123407483.0,3.3190409979954692e+16,1.4890561201424276e+18,6.587146189345783e+18,2.0025778776999406e+18
10501.531995000581,1.6921966625106806e+16,1.105169691515527e+19,727066614435554.8,2969529983965222.0,3.527717604333532e+16,1.623483125982327e+18,7.157359702212313e+18,2.2149583476937713e+18
11552.68519450064,1.717175246560938e+16,1.204588192593868e+19,737798795111903.5,3149043207926342.5,3.740939236406369e+16,1.7684337948709763e+18,7.76785925059357e+18,2.4511208936414566e+18
12708.953713950705,1.7445470100141426e+16,1.311928173428918e+19,749559215792252.4,3331674384174100.5,3.9578558082438984e+16,1.9243992307855117e+18,8.419774218645461e+18,2.714003023075683e+18
13980.849085345777,1.77451135562416e+16,1.427649303605087e+19,762433550352903.2,3516707387129610.0,4.177615054532825e+16,2.0918183078995686e+18,9.113914084143981e+18,3.0069602389682314e+18
15379.933993880357,1.8072738577430216e+16,1.5522130761797505e+19,776510124242749.5,3703459348927095.5,4.399404091800669e+16,2.2710565186290486e+18,9.85069270043153e+18,3.333834793768292e+18
16918.927393268394,1.8430426288621172e+16,1.6860803257506292e+19,791878353352181.5,3891318162051980.5,4.622493999012339e+16,2.462381194783466e+18,1.0630047770119741e+19,3.6990357298089175e+18
18611.820132595236,1.8820231900598804e+16,1.8297093942920847e+19,808626540086614.2,4079779329103914.0,4.846283639226249e+16,2.6659329637926113e+18,1.1451357188400888e+19,4.107632316565281e+18
20474.00214585476,1.9244115904481744e+16,1.983555411633959e+19,826838917128187.4,4268478274005207.0,5.0703381119101384e+16,2.881693794300032e+18,1.2313357265401958e+19,4.5654602424229545e+18
22522.40236044024,1.9703854535191956e+16,2.1480712717744378e+19,846591800499916.9,4457213398520819.5,5.2944162382551176e+16,3.109452263510207e+18,1.3214067762567524e+19,5.07924086954987e+18
24775.642596484264,2.0200927764919468e+16,2.3237109943493325e+19,867948777222821.6,4645955114574683.0,5.518481419780242e+16,3.348767472292799e+18,1.4150731628037968e+19,5.656711197308065e+18
27254.206856132692,2.0736384814299204e+16,2.510936246488288e+19,890954927046278.9,4834836596299058.0,5.742690819831178e+16,3.5989339274289367e+18,1.5119778680635496e+19,6.306760772282549e+18
29980.627541745966,2.1310690263014196e+16,2.710226839283697e+19,915630210665844.8,5024123431917385.0,5.967359521423973e+16,3.8589508333650857e+18,1.6116823101519313e+19,7.039570418832698e+18
32979.69029592056,2.19235579334897e+16,2.9220959752019476e+19,941962332650371.0,5214161680278610.0,6.19289907068501e+16,4.127500337218684e+18,1.7136702974652807e+19,7.866747767494731e+18
36278.65932551262,2.2573784130065324e+16,3.147110877565399e+19,969899576712665.5,5405306813147562.0,6.419733339862401e+16,4.4029399522763796e+18,1.8173565811715764e+19,8.801456687743281e+18
39907.525258063884,2.325909536788443e+16,3.385919159454456e+19,999344263548494.5,5597839160756169.0,6.64819835367366e+16,4.683314141175888e+18,1.922099811805751e+19,9.858541072982266e+18
43899.277783870275,2.3976027461321584e+16,3.639280886023361e+19,1030147556019730.0,5791874209716265.0,6.87843594974206e+16,4.966388560592513e+18,2.0272192262440534e+19,1.1054645628476e+19
47528.14371642154,2.4601244805332276e+16,3.862706225420198e+19,1057010290215855.9,5956684613929952.0,7.073993180971838e+16,5.205559067322525e+18,2.115506909198244e+19,1.2164079223377758e+19
51519.89624222793,2.5251915026486164e+16,4.101076814224774e+19,1084966624673380.6,6124598128482111.0,7.273232152718021e+16,5.44670318394436e+18,2.2042641617936232e+19,1.3416229539060234e+19
55148.76217477919,2.5816551287847404e+16,4.312303553443888e+19,1109226480928247.6,6268167254026278.0,7.443590040801941e+16,5.650264240504616e+18,2.279035043509071e+19,1.4574791013412782e+19
59140.51470058558,2.640088891009245e+16,4.538791536930899e+19,1134332824779101.0,6415006781574979.0,7.617834831660182e+16,5.855281643250365e+18,2.3543869209290805e+19,1.5878635939934753e+19
62769.38063313685,2.690564473267126e+16,4.740353780922175e+19,1156019910408029.0,6540815616576262.0,7.767133494990398e+16,6.028283140886631e+18,2.418101126386254e+19,1.7081969589263038e+19
66761.13315894324,2.74256860959134e+16,4.957430227246912e+19,1178363758508468.5,6669600618374961.0,7.919973962992211e+16,6.202475213492635e+18,2.482499536812912e+19,1.8432358300744673e+19
70389.99909149451,2.7873311476337948e+16,5.151337947436609e+19,1197596229186205.8,6779957604842502.0,8.050956253617304e+16,6.349520906040987e+18,2.5371733264734097e+19,1.9675764875744334e+19
74381.7516173009,2.83330451849905e+16,5.3609575537149755e+19,1217348953321651.0,6892901750564948.0,8.185020866498722e+16,6.497666362976082e+18,2.5926131439495877e+19,2.106748423012401e+19
78010.61754985218,2.8727779952423516e+16,5.548796691004382e+19,1234308973723741.8,6989641561180293.0,8.299863670377544e+16,6.622857834302098e+18,2.6398779927632974e+19,2.234637878091762e+19
82002.37007565857,2.9132399287608084e+16,5.752498040757668e+19,1251693703055714.8,7088614570699194.0,8.417369540160981e+16,6.749155203690162e+18,2.6879680496756634e+19,2.377449830416686e+19
86393.29785404561,2.954390100933027e+16,5.973470285464117e+19,1269374153612375.2,7189122154956425.0,8.536711971087989e+16,6.875681540974894e+18,2.736751635331412e+19,2.5368135443323294e+19
90385.05037985201,2.989463043189584e+16,6.1720767039904555e+19,1284443496263946.8,7274700611831703.0,8.638342410405474e+16,6.98225638013626e+18,2.77844897522931e+19,2.6829183708831187e+19
94775.97815823904,3.025157882830693e+16,6.3881186479938585e+19,1299780055332161.5,7361730009201163.0,8.741709376940851e+16,7.089398693472634e+18,2.8208730041655947e+19,2.8456727562147762e+19
98767.73068404544,3.05558818480832e+16,6.582731982726204e+19,1312854679109636.2,7435885626368805.0,8.829798921479632e+16,7.179912981840207e+18,2.8572611707280085e+19,2.994719252677331e+19
103158.65846243248,3.0865751346068724e+16,6.794894570018822e+19,1326168482917947.2,7511368339603372.0,8.919476541142691e+16,7.271192286104662e+18,2.8944108281665085e+19,3.1604747078838268e+19
107988.67901865821,3.1178959633799548e+16,7.026249444705913e+19,1339625754027332.2,7587642211506230.0,9.0101072757299e+16,7.362667454612555e+18,2.9322641880834208e+19,3.344697781125568e+19
112379.60679704524,3.144462194194356e+16,7.23508604362468e+19,1351040182905105.5,7652325314020241.0,9.08697818422363e+16,7.439847769467741e+18,2.9648344490770436e+19,3.5131350406727442e+19
117209.62735327097,3.1713924379386828e+16,7.463223212768074e+19,1362611024485117.0,7717885665271378.0,9.164902620399134e+16,7.517593261907273e+18,2.9981201161202135e+19,3.7000994257298145e+19
122522.64996511929,3.1985040981934116e+16,7.712502624300899e+19,1374259825616622.8,7783881189601664.0,9.243356304679013e+16,7.595459803652871e+18,3.0320760386076455e+19,3.907522930823581e+19
