t(s),Total solute volume 1,Total retention volume 1,Total 1 volume 1,Total 2 volume 1,Total 3 volume 1,Total 4 volume 1,Total 5 volume 1,Total 6 volume 1
1.0,2608533823723230.5,2612274703608691.0,3740879885460.3955,0.0,0.0,0.0,0.0,0.0
2.1,4009004038363558.0,4014770347710562.5,5749284060335.677,2744513.4870839817,13490399.002543539,274304352.39766204,5724775989.939369,11009971408.09175
3.3100000000000005,5136441112923051.0,5143853003205596.0,7366133392818.666,7382604.300545849,36288485.341952465,737940599.8217602,15398715523.254875,29576562484.588673
4.641000000000001,6144535135240587.0,6153433189976715.0,8811833729640.742,13916628.941736413,68405843.16682105,1391228229.577663,29028634674.204563,55718821128.20716
6.105100000000002,7090630024075308.0,7100938092644578.0,10168621564791.094,22510823.17621825,110649757.98844837,2250687634.9135513,46959313469.027626,90103842783.67145
7.7156100000000025,8003563701212084.0,8015248547393482.0,11477853150668.857,33414652.265484642,164246451.92283604,3341390368.2198615,69713844216.97868,133740135028.84523
9.487171000000004,8900475691915453.0,8913530642835340.0,12764108155080.045,46945786.26027554,230757400.70275086,4695269540.213225,97958424054.09242,187911368030.21234
11.435888100000005,9792757889093278.0,9807195007630554.0,14043723608416.486,63488126.57956037,312069633.61016047,6350936923.58901,132498552573.50873,254169881600.27133
13.579476910000007,1.068863670641594e+16,1.0704482692717462e+16,15328496950409.87,83495756.92510112,410415153.7618324,8354095795.016108,174287637626.53992,334353706807.76117
15.937424601000009,1.1594453981311418e+16,1.161174795729441e+16,16627522963559.9,107500166.87407112,528406444.7194344,10758285632.240295,224442493453.52164,430616333727.02924
18.53116706110001,1.2515365103663874e+16,1.2534157458643202e+16,17948194954095.363,136119851.8435329,669083657.5346285,13625870353.700676,284263860219.87366,545465091113.1566
21.384283767210015,1.3455744901333788e+16,1.3476096790765796e+16,19296786828981.55,170071981.55693018,835971964.631052,17029240848.266726,355261289458.32886,681806028749.0931
24.522712143931017,1.4419430855225526e+16,1.4441414128659388e+16,20678801888282.38,210186027.63984948,1033148542.5463451,21052222751.41639,439182150712.6372,842993837562.6862
27.97498335832412,1.5409864059224788e+16,1.5433561478732122e+16,22099174974117.38,257419255.10950074,1265318715.0504181,25791682351.017735,538044555666.1193,1032885557197.0298
31.772481694156536,1.6430155393797932e+16,1.6455661041909772e+16,23562367369119.215,312873869.09546554,1537900230.713722,31359312830.8777,654173788380.1477,1255896867412.6409
35.949729863572195,1.7483088038107182e+16,1.7510507828040852e+16,25072370398596.664,377815387.49482954,1857113564.6696525,37883561787.2947,790241413814.9877,1517059630539.7285
40.544702849929415,1.8571060366689216e+16,1.860051257025563e+16,26632623538923.266,453691506.7023607,2230074642.4084754,45511631448.800255,949305655406.153,1822078974447.4812
45.59917313492236,1.9695972399037996e+16,1.9727588107644944e+16,28245851575922.703,542150384.1514772,2664884695.6958795,54411449523.37349,1134850967843.9407,2177387578644.6953
51.1590904484146,2.0859062396727944e+16,2.0892985834426972e+16,29913830270590.12,645056938.7146571,3170710374.7724657,64773477073.83142,1350824103040.3313,2590194081072.989
57.27499949325607,2.206070602957117e+16,2.209709464786902e+16,31637098345688.43,764505532.9281036,3757846075.783759,76812196716.85997,1601663507620.0837,3068521896208.6216
64.00249944258168,2.330019667157928e+16,2.3339220974872916e+16,33414642411017.75,902827300.820475,4437749950.055952,90767114857.91428,1892318706517.2856,3621234483968.67
71.40274938683986,2.457552991037693e+16,2.4617372986952576e+16,35243587931351.86,1062590445.8000716,5223045360.167226,106903118004.72581,2228256472237.0195,4258043418191.0215
79.54302432552385,2.588321697131611e+16,2.592807373466176e+16,37118931660830.48,1246592048.6906345,6127480607.79097,125510044859.55315,2615451043762.201,4989496523521.24
88.49732675807624,2.721815013236665e+16,2.7266226307240236e+16,39033348636945.32,1457840271.3875906,7165841456.069276,146901370349.36703,3060356390873.909,5826944793705.432
98.34705943388387,2.8573538935063308e+16,2.8625049849113036e+16,40977100702554.15,1699526291.591645,8353813181.19895,171411942487.20624,3569859462549.16,6782488602699.281
109.18176537727226,2.9940930279811436e+16,2.999609954287928e+16,42938065325681.93,1974985853.1589587,9707791586.860605,199394767416.72717,4151214492399.69,7868905704936.162
121.09994191499949,3.1310319626066452e+16,3.1369377795742624e+16,44901895071914.98,2287650988.7663703,11244645718.880333,231216904636.31778,4811959799357.88,9099565603536.281
134.20993610649944,3.2670355405884268e+16,3.2733538750957864e+16,46852310753076.09,2640993312.9910064,12981439152.919237,267254618042.4892,5559820205716.056,10488337064327.291
148.6309297171494,3.4008634630069788e+16,3.4076184115284308e+16,48771525354109.47,3038461336.667992,14935121902.010628,307888033693.11395,6402600283791.392,12049497959717.637
164.49402268886433,3.5312084063060308e+16,3.5384244690496156e+16,50640790672935.35,3483415515.9375463,17122211195.63707,353495682578.17883,7348076145315.913,13797659308359.744
181.94342495775078,3.656741739529202e+16,3.6644438049759416e+16,52441052947134.75,3979066135.3313265,19558486193.16146,404449448476.5674,8403896252766.602,15747718266689.271
201.13776745352587,3.776165369986199e+16,3.784378765597945e+16,54153696367352.75,4528420434.803965,22258728134.93566,461110578357.4948,9577504391492.643,17914857631680.51
222.25154419887846,3.888267573226159e+16,3.897018198577344e+16,55761343728747.35,5134246314.081499,25236541972.39971,523827515567.0181,10876099905688.414,20314611573600.035
245.47669861876633,3.991979867932407e+16,4.0012944259964904e+16,57248672067073.23,5799060093.961317,28504296236.75733,592936345766.9017,12306650818012.074,22963018053637.99
271.024368480643,4.086431196487647e+16,4.09633753679925e+16,58603189655276.54,6525144785.592565,32073212850.02468,668764562181.9917,13875973736603.066,25876876804285.625
299.1268053287073,4.170995049577832e+16,4.181522633135952e+16,59815911811028.35,7314602811.489228,35953626259.33621,751638628143.9152,15590889873349.885,29074127039626.395
330.03948586157804,4.245324938130715e+16,4.256505428069352e+16,60881869594518.1,8169443044.963412,40155411237.519066,841895428803.8135,17458458802026.01,32574350706798.945
364.0434344477359,4.3093739574441016e+16,4.321241931854122e+16,61800390374098.375,9091696622.910522,44688552095.43241,939897178833.2028,19486281127203.61,36399395171231.055
401.44777789250946,4.363395223111176e+16,4.375988997512368e+16,62575104076617.52,10083549875.861235,49563796017.24227,1046048746501.9465,21682849135070.824,40574094707870.45
442.5925556817604,4.4079216824971336e+16,4.421284220292117e+16,63213653665043.49,11147476936.694908,54793304809.68467,1160815763610.1304,24057912662822.76,45127055076670.4
487.8518112499365,4.443726063027755e+16,4.457905944120414e+16,63727120760564.21,12286350425.78919,60391198892.50397,1284741440317.4556,26622818339725.684,50091452836642.75
537.6369923749302,4.4717641982041256e+16,4.486816610325839e+16,64129212886742.164,13503507352.081385,66373881172.258026,1418459822131.9446,29390776600411.195,55505794519320.81
592.4006916124232,4.493107245323833e+16,4.50909496089071e+16,64435291411055.51,14802749928.15,72760041016.33931,1562703408682.5288,32377014407806.29,61414583650318.46
652.6407607736655,4.508869910699476e+16,4.525864215206636e+16,64661342230527.49,16188267528.897985,79570270645.04387,1718303624889.0122,35598783003168.52,67868857674672.27
718.9048368510321,4.520142342116343e+16,4.538223888353367e+16,64822999048908.32,17664475680.126972,86826273721.34946,1886183521223.579,39075207803091.766,74926581247588.22
791.7953205361354,4.527932643503071e+16,4.547192218398751e+16,64934718985893.06,19235778925.529938,94549699797.23161,2067343108484.5813,42826988344089.516,82652913039667.11
871.9748525897489,4.533125099482984e+16,4.55366430525499e+16,65009183480050.58,20906274284.83175,102760686758.37166,2262838666655.794,46875975136849.375,91120393475404.45
960.1723378487239,4.536456538445977e+16,4.558388404309446e+16,65056959314333.07,22679418481.75494,111476225190.19438,2473757970359.3794,51244662605727.086,100409123100635.55
1057.1895716335964,4.538510384834073e+16,4.561959937059196e+16,65086413320717.52,24557683764.912403,120708466671.57106,2701193486410.3633,55955639681719.78,110607009611910.08
1163.9085287969563,4.5397254457924264e+16,4.564830322199246e+16,65103838388826.2,26542223814.680336,130463081759.45735,2946215299740.318,61031056302709.27,121810648771336.34
1281.299381676652,4.540415104733852e+16,4.567325969008667e+16,65113728718956.125,28632565999.236553,140737746810.61887,3209844023726.4766,66491966012893.26,134123733679606.58
1410.4293198443174,4.540791370397222e+16,4.5696727595282024e+16,65119124707325.11,30826334697.87231,151520784948.07416,3493025298753.5396,72357964698616.28,147661429485442.88
1552.4722518287492,4.540990170733207e+16,4.572021138816006e+16,65121975683125.02,33119012929.266632,162789993707.84656,3796602743388.6416,78646506363343.95,162548687031486.75
1708.7194770116243,4.541093864910311e+16,4.574468795809618e+16,65123462750981.55,35503738294.640785,174511642229.66714,4121289909365.3574,85372357046172.22,178922183906009.56
1880.5914247127869,4.541149552658326e+16,4.577079064970034e+16,65124261363424.305,37971137684.942566,186639658784.00732,4467639149620.724,92546948715601.67,196931663092008.66
2069.6505671840655,4.541182612589764e+16,4.5798945551391336e+16,65124735472605.266,40509207735.10165,199115043159.17447,4836006554411.384,100177651568035.47,216741407647723.8
2277.615623902472,4.541205903422522e+16,4.582946438179718e+16,65125069484115.98,43103254808.731926,211865571659.64297,5226512559792.02,108266956805498.52,238531839896132.22
2506.3771862927197,4.541225534986775e+16,4.586260306377455e+16,65125351018422.016,45735914067.41783,224805890830.90256,5638998525923.735,116811576190691.39,262501246366781.53
2758.0149049219917,4.5412442154582776e+16,4.5898596098898856e+16,65125618913201.29,48387270787.888824,237838113765.57715,6072980280474.54,125801479023353.05,288867640714492.06
3034.816395414191,4.541263048303049e+16,4.593767554550731e+16,65125888993150.95,51035107542.017784,250853035065.07153,6527600279551.886,135218900728651.05,317870784332738.8
3339.2980349556105,4.541282425212347e+16,4.598008114549836e+16,65126166875475.25,53655297644.295044,263732064751.35724,7001580656723.941,145037370026288.94,349774388454014.7
3674.227838451172,4.541302436548607e+16,4.6026065908987576e+16,65126453856053.484,56222358205.38261,276349946691.7899,7493180028765.671,155220814039571.28,384868523272247.8
4042.6506222962894,4.5413230456459736e+16,4.6075899724984344e+16,65126749409064.17,58710165211.20588,288578273429.0394,8000157511640.033,165722812833865.28,423472260331348.0
4447.915684525919,4.5413441571419624e+16,4.612987241540893e+16,65127052166923.48,61092818513.89114,300289737873.50586,8519747947490.102,176486086227327.9,465936575091189.9
4893.707252978511,4.541365641902311e+16,4.6188296983438344e+16,65127360277729.91,63345627123.65446,311362976311.639,9048652791006.871,187442305002161.38,512647537740844.25
5384.077978276362,4.541387346009901e+16,4.625151346291592e+16,65127671534172.96,65446166010.762924,321687762908.1787,9583051354647.057,198512323855305.38,564029822143779.2
5923.485776103998,4.541409094899558e+16,4.6319893612285464e+16,65127983432831.36,67375336833.25655,331170223504.9289,10118637043725.412,209606932014499.28,620550565238476.5
6516.834353714399,4.5414306967824904e+16,4.639384661851183e+16,65128293223280.8,69118349450.21786,339737660056.7346,10650682687615.262,220628206577051.53,682723612189413.6
7169.5177890858395,4.541451946809028e+16,4.647382592864978e+16,65128597967792.914,70665532149.83238,347342533148.93665,11174137959336.416,231471530554236.53,751114186012746.5
7887.469567994424,4.541472632422633e+16,4.656033728136211e+16,65128894618115.35,72012879620.85255,353965155444.3257,11683760068362.523,242028300163574.25,826344024250665.6
8677.216524793868,4.541492539962413e+16,4.665394795581172e+16,65129180110158.59,73162261475.06635,359614716635.4404,12174276366793.506,252189293198654.2,909097029533896.8
9545.938177273256,4.5415114623567944e+16,4.6755297187982536e+16,65129451474330.03,74121241570.85495,364328395366.2095,12640574281667.09,261848603451899.94,1000125485569783.1
10501.531995000581,4.541529207578617e+16,4.686510762738411e+16,65129705956786.99,74902497977.2632,368168508180.44745,13077910266594.568,270907969115284.5,1100256895253165.1
11552.68519450064,4.541545607371379e+16,4.6984197627653304e+16,65129941144580.02,75522880676.09212,371217877842.61774,13482125608221.734,279281243173179.94,1210401503254870.5
12708.953713950705,4.541560525615162e+16,4.7113494094205304e+16,65130155085626.78,76002191807.09045,373573837873.38544,13849853449443.865,286898681847532.5,1331560571641285.8
13980.849085345777,4.541573865602762e+16,4.72540455653029e+16,65130346393058.97,76361812553.73346,375341483276.7009,14178698958477.264,293710676760458.94,1464835483867428.2
15379.933993880357,4.541585575469003e+16,4.7407035195334136e+16,65130514323083.27,76623323050.96175,376626886967.2484,14467373888232.576,299690542297173.25,1611437759925614.0
16918.927393268394,4.541595651084213e+16,4.7573793354531704e+16,65130658816476.484,76807260993.0065,377530997950.50616,14715768455792.646,304836004564213.1,1772700073594152.8
18611.820132595236,4.541604135901023e+16,4.775580966586432e+16,65130780496388.484,76932139636.85048,378144814510.78186,14924947887680.541,309169129812176.75,1950088371703646.2
20474.00214585476,4.541611117528796e+16,4.795474446571847e+16,65130880619216.38,77013801022.68741,378546205092.3946,15097068041395.344,312734576537900.7,2145215205225841.2
22522.40236044024,4.5416167211757576e+16,4.817243988594723e+16,65130960980558.88,77065124864.73154,378798477408.60925,15235213572129.441,315596243124605.3,2359854392909979.5
24775.642596484264,4.54162110049529e+16,4.841093098350131e+16,65131023783943.48,77096059744.2497,378950531763.9922,15343171918340.135,317832585982176.06,2595957150272504.0
27254.206856132692,4.541624426730717e+16,4.86724575529365e+16,65131071485154.24,77113902242.07306,379038233074.848,15425165238348.494,319531066651769.0,2855669830118701.0
29980.627541745966,4.541626877300767e+16,4.895947740667328e+16,65131106628534.9,77123728748.24954,379086533344.44183,15485568529186.752,320782312679666.44,3141353435566162.5
32979.69029592056,4.541628625042511e+16,4.927468196531606e+16,65131131692724.96,77128885264.31595,379111879189.8062,15528644016733.992,321674615549717.0,3455605082867238.5
36278.65932551262,4.541629829242951e+16,4.96210149382947e+16,65131148962043.63,77131458269.78494,379111979705.0482,15558318833143.092,322289325306336.94,3801281609325667.0
39907.525258063884,4.541630629007797e+16,5.000169480474913e+16,65131160431391.336,77131471852.29271,379112046461.83453,15578025403234.846,322697544185128.06,4181525541133127.0
43899.277783870275,4.5416311399669736e+16,5.042024138477739e+16,65131167759006.164,77131480529.97755,379112089111.8638,15590613373237.232,322958302232346.0,4599793658173435.0
48290.20556225731,4.5416314532985224e+16,5.088050685853049e+16,65131172252462.77,77131485851.32707,379112115265.8103,15598330609070.156,323118163690439.25,5059888415392149.0
53120.22611848305,4.541631637316914e+16,5.138671117481234e+16,65131174891452.12,77131488976.5348,379112130625.9208,15602861215253.99,323212014557052.0,5565992507359790.0
58433.24873033136,4.541631740599463e+16,5.1943481776334056e+16,65131176372616.57,77131490730.59517,379112139246.96783,15605402526764.49,323264657462700.0,6122706890347395.0
64277.57360336451,4.541631798180681e+16,5.2555896222545096e+16,65131177198383.1,77131491708.5044,379112144053.3023,15605402724278.717,323292806622468.44,6735092610557417.0
70706.33096370097,4.541631847181065e+16,5.322952093667362e+16,65131177901092.81,77131492540.6844,379112148143.3909,15605402892348.117,323292810047552.44,7408716830381154.0
77777.96406007107,4.54163184832438e+16,5.397050744083947e+16,65131177917488.945,77131492560.10143,379112148238.82336,15605402896269.598,323292810127437.44,8149703323013766.0
85556.76046607818,4.541631848472817e+16,5.478559248349915e+16,65131177919617.69,77131492562.62218,379112148251.2135,15605402896778.742,323292810137808.4,8964788364176022.0
94113.436512686,4.541631848616533e+16,5.568218590863622e+16,65131177921678.7,77131492565.06296,379112148263.2097,15605402897271.674,323292810147850.25,9861381787863228.0
103525.78016395462,4.541631848774315e+16,5.66684385291583e+16,65131177923941.44,77131492567.74261,379112148276.37933,15605402897812.844,323292810158874.56,1.084763440679372e+16
113879.3581803501,4.5416318489478616e+16,5.7753316233710856e+16,65131177926430.47,77131492570.6901,379112148290.86615,15605402898408.15,323292810171000.94,1.1932512109595456e+16
125268.29399838512,4.5416318491387704e+16,5.894668149331214e+16,65131177929168.15,77131492573.9322,379112148306.80115,15605402899062.928,323292810184339.8,1.3125877367271034e+16
137796.12339822366,4.541631849348781e+16,6.0259383018232136e+16,65131177932179.766,77131492577.4987,379112148324.3297,15605402899783.246,323292810199013.1,1.443857889007248e+16
151576.73573804603,4.541631849579774e+16,6.1703354380267704e+16,65131177935492.46,77131492581.42195,379112148343.61176,15605402900575.55,323292810215152.94,1.5882550249777772e+16
166735.40931185064,4.541631849833875e+16,6.329172249690148e+16,65131177939136.55,77131492585.73715,379112148364.82104,15605402901447.105,323292810232907.7,1.7470918363848354e+16
183409.95024303574,4.541631850113383e+16,6.5038926963456584e+16,65131177943144.93,77131492590.48424,379112148388.15265,15605402902405.85,323292810252437.75,1.9218122827583748e+16
201751.94526733932,4.541631850420838e+16,6.696085131795917e+16,65131177947554.23,77131492595.70583,379112148413.8162,15605402903460.402,323292810273920.06,2.114004717898475e+16
221928.13979407327,4.541631850759055e+16,6.9074967431875624e+16,65131177952404.38,77131492601.44957,379112148442.0465,15605402904620.45,323292810297551.4,2.325416328948944e+16
244121.9537734806,4.5416318511310696e+16,7.140049433917991e+16,65131177957739.62,77131492607.76787,379112148473.0997,15605402905896.486,323292810323545.56,2.5579690193040884e+16
268535.1491508287,4.541631851540306e+16,7.395857294743069e+16,65131177963608.24,77131492614.71783,379112148507.25824,15605402907300.107,323292810352139.1,2.8137768797163356e+16
295389.6640659116,4.541631851990459e+16,7.677245821886805e+16,65131177970063.89,77131492622.36276,379112148544.83246,15605402908844.146,323292810383592.2,3.0951654064059756e+16
324929.6304725028,4.5416318524856264e+16,7.986773056830752e+16,65131177977165.164,77131492630.7723,379112148586.1652,15605402910542.504,323292810418189.56,3.4046926408504036e+16
357423.5935197531,4.54163185303031e+16,8.327252839923034e+16,65131177984976.25,77131492640.02274,379112148631.6298,15605402912410.742,323292810456247.25,3.745172423393227e+16
393166.95287172846,4.5416318536294536e+16,8.701780389155952e+16,65131177993568.79,77131492650.19807,379112148681.6411,15605402914465.822,323292810498111.25,4.119699972021738e+16
432484.6481589014,4.54163185428853e+16,9.113760436588302e+16,65131178003020.35,77131492661.3912,379112148736.6536,15605402916726.414,323292810544161.0,4.53168001878924e+16
475734.11297479155,4.541631855013505e+16,9.566938178128243e+16,65131178013417.11,77131492673.70352,379112148797.168,15605402919213.025,323292810594816.5,4.984857759597852e+16
523308.52427227073,4.541631855810977e+16,1.0065433317953344e+17,65131178024853.48,77131492687.2472,379112148863.7332,15605402921948.316,323292810650536.5,5.483352898618475e+16
