t(s),Total solute volume 1,Total retention volume 1,Total 1 volume 1,Total 2 volume 1,Total 3 volume 1,Total 4 volume 1,Total 5 volume 1,Total 6 volume 1
1.0,1913856954139102.2,1914366347166172.0,509393027068.43866,0.0,0.0,0.0,0.0,0.0
2.1,2771752517806552.0,3072609711612967.0,737730893459.9861,275894028599.8662,870643996663.3936,9115402488300.89,123257727207286.02,166599795192110.66
3.3100000000000005,3349462830044690.5,4111878154781936.5,891494528603.7491,699840834817.0529,2208532158578.828,23126793242097.312,312714401003947.5,422774262969202.7
4.641000000000001,3782303913424743.0,5138561214490362.0,1006699705381.4362,1245053297434.7808,3929154847743.795,41152381306360.195,556443909932476.06,752480101976227.8
6.105100000000002,4123239318146958.5,6195558987400514.0,1097443225813.0264,1902095228981.2766,6002758695273.401,62883869084132.81,850274507653280.1,1150158995366046.2
7.7156100000000025,4399770620987203.5,7307874883167356.0,1171044921773.213,2668464898903.9395,8421477461579.807,88242626873220.36,1193139387646124.8,1614461260378560.8
9.487171000000004,4628459686556153.0,8493789361491093.0,1231912906497.8267,3545501530053.2173,11189571421621.438,117277713772307.12,1585697565251107.2,2146387410053386.2
11.435888100000005,4820231063328837.0,9768808624028820.0,1282954862661.7769,4537128272288.195,14319462125883.047,150124571120868.4,2029775145944313.8,2748538298373947.5
13.579476910000007,4982745716334180.0,1.1147404431111792e+16,1326209836123.4426,5649256413012.494,17829854014716.67,186985588281693.88,2528102315053204.5,3424765491178821.5
15.937424601000009,5121616054414171.0,1.2643916540759334e+16,1363171628118.2688,6889483246357.408,21744783023557.027,228120412104847.5,3084182036899014.0,4180000599443284.5
18.53116706110001,5241090086379094.0,1.4273090737050392e+16,1394970890564.1072,8266940400059.551,26093140367837.76,273841281918212.9,3702226654771313.0,5020177662323282.0
21.384283767210015,5344465175963146.0,1.6050443465349418e+16,1422485251263.5168,9792228024468.084,30908467753971.41,324511269226581.3,4387133702502225.0,5952210136627779.0
24.522712143931017,5434352536121676.0,1.7992539832080734e+16,1446409711823.079,11477402443424.502,36228921872098.31,380544366576211.4,5144486640841660.0,6984003554513840.0
27.97498335832412,5512853956595508.0,2.0117228251187464e+16,1467303685540.2698,13335999625191.145,42097352615110.805,442406860011461.2,5980572854541104.0,8124493924113568.0
31.772481694156536,5581684223787394.0,2.2443855147205544e+16,1485623580731.9927,15383084183636.264,48561462688968.64,510619665477618.94,6902414568299497.0,9383706519187736.0
35.949729863572195,5642258495423076.0,2.4993473365220916e+16,1501746056413.1523,17635317506925.887,55674028569342.27,585761441623082.9,7917810122169489.0,1.0772832213872574e+16
40.544702849929415,5695756251346307.0,2.778905286687067e+16,1515985043468.557,20111040740363.24,63493169507155.67,668472366180891.6,9035384052960674.0,1.2304320001091902e+16
45.59917313492236,5743169114357239.0,3.0855699540491584e+16,1528604472668.5393,22830369520119.453,72082655010378.0,759458506916322.2,1.0264645015176674e+16,1.3991985275038158e+16
51.1590904484146,5785337276237759.0,3.4220886415255224e+16,1539827969835.956,25815297961659.008,81512243182160.06,859496744195356.1,1.1616050921189426e+16,1.5851134104519142e+16
57.27499949325607,5822977694093559.0,3.791470069534813e+16,1549846360597.1812,29089809656035.25,91858043124504.89,969440217442243.4,1.3101080878615056e+16,1.7898704206056144e+16
64.00249944258168,5856706227374946.0,4.197010953551713e+16,1558823562381.387,32679993428056.094,103202894666686.72,1090224275818496.0,1.4732313603161288e+16,2.01534237175052e+16
71.40274938683986,5887055237650952.0,4.642324720831552e+16,1566901268784.1934,36614161420522.375,115636758131415.11,1222872916379860.0,1.6523512014535142e+16,2.2635989218928796e+16
79.54302432552385,5914487740076473.0,5.131372617801654e+16,1574202716128.5515,40922966717707.414,129257105801717.95,1368505691801269.0,1.8489713695350116e+16,2.536926477555311e+16
88.49732675807624,5939408899606979.0,5.668497454432147e+16,1580835743302.314,45639517221828.23,144169305237571.22,1528345064977434.2,2.0647326814553256e+16,2.8378504106981044e+16
98.34705943388387,5962175458808582.0,6.2584602318434936e+16,1586895301068.3945,50799481851568.08,160486982621884.2,1703724179511864.2,2.301423098892368e+16,3.169159833141627e+16
109.18176537727226,5983103537780629.0,6.906479902378952e+16,1592465528095.6409,56441184339283.49,178332351880704.25,1896095003146543.2,2.5609882376415076e+16,3.5339352104699332e+16
121.09994191499949,6002475141133437.0,7.618276515907094e+16,1597621482858.939,62605678958273.85,197836492402923.12,2107036785208453.0,2.845542205866211e+16,3.9355791381222824e+16
134.20993610649944,6020543629625588.0,8.40011801112883e+16,1602430599972.662,69336801408045.73,219139554758779.94,2338264748648478.5,3.1573786469879284e+16,4.3778506476368264e+16
148.6309297171494,6037538356601265.0,9.258870915262325e+16,1606953924226.8872,76681186820688.62,242390869866978.28,2591638911572097.0,3.498981825689018e+16,4.8649034616947784e+16
164.49402268886433,6053668626093508.0,1.020205521889859e+17,1611247164077.943,84688245426810.53,267748932582961.7,2869172901534078.0,3.873037549983933e+16,5.401328673634513e+16
181.94342495775078,6069127096446054.0,1.1237903694364272e+17,1615361597557.952,93410084844450.14,295381225692994.8,3173042587398742.5,4.282443667361602e+16,5.992202391404698e+16
201.13776745352587,6084092727795315.0,1.2375425924934618e+17,1619344856777.9067,102901366250195.28,325463844850859.2,3505594307262862.5,4.730319807354213e+16,6.64313895847879e+16
222.25154419887846,6098733351774800.0,1.3624477308105069e+17,1623241611881.4104,113219079896165.58,358180879184095.8,3869352415733574.5,5.2200159652225736e+16,7.360350446062437e+16
245.47669861876633,6113207925935506.0,1.4995833288305827e+17,1627094171082.1992,124422223609640.17,393723496287947.25,4267025808640666.5,5.755119430453488e+16,8.150713202987862e+16
271.024368480643,6127668522565238.0,1.6501269062501114e+17,1630943010009.1782,136571366143266.2,432288674366618.94,4701513006950713.0,6.339459458229241e+16,9.021842352968288e+16
299.1268053287073,6142262091056915.0,1.8153644985797997e+17,1634827240779.1707,149728075659541.03,474077518733421.7,5175905293243244.0,6.977108960980223e+16,9.982175244224432e+16
330.03948586157804,6157132024124674.0,1.996699788352839e+17,1638785028861.7397,163954192406396.03,519293095243551.44,5693487292826252.0,7.672382360022261e+16,1.1041064984543166e+17
364.0434344477359,6172419550536701.0,2.1956638451695565e+17,1642853963769.5366,179310923999565.44,568137710175161.1,6257734277007640.0,8.429828584249867e+16,1.220888533587745e+17
401.44777789250946,6188264970263612.0,2.41392549002344e+17,1647071387805.965,195857741965010.5,620809565466824.1,6872305338404250.0,9.254218035071645e+16,1.349714839641403e+17
442.5925556817604,6204808741743476.0,2.65330229650586e+17,1651474685452.154,213651059676133.9,677498721161700.5,7541031448574726.0,1.0150522156888467e+17,1.4918636663585926e+17
487.8518112499365,6222192425105993.0,2.915772238832755e+17,1656101534415.9104,232742674986755.75,738382304747719.2,8267897259128328.0,1.1123884065145392e+17,1.648755124663182e+17
537.6369923749302,6240559479494132.0,3.2034859946144096e+17,1660990117847.2087,253177966226242.53,803618921415625.1,9057015353035058.0,1.217957849684575e+17,1.8219678178269408e+17
592.4006916124232,6260055906927336.0,3.5187799095238074e+17,1666179295709.1135,274993838361792.38,873342241902678.4,9912591499861588.0,1.3322959172606864e+17,2.013257495599631e+17
652.6407607736655,6280830729365132.0,3.864189632363257e+17,1671708731753.2817,298216427650880.75,947653777523605.2,1.083887932706757e+16,1.4559391510814957e+17,2.2245779615783773e+17
718.9048368510321,6303036279701781.0,4.242464433610964e+17,1677618970971.162,322858588591546.3,1026614897208290.6,1.1840122703515202e+16,1.5894168535124634e+17,2.458104479218613e+17
791.7953205361354,6326828281357657.0,4.656582229798957e+17,1683951460778.1394,348917206920798.7,1110238200672527.4,1.292048406046213e+16,1.7332407795647168e+17,2.7162599332255e+17
871.9748525897489,6352365685023544.0,5.1097653518360525e+17,1690748507561.302,376370407093170.7,1198478436534196.0,1.4083956875470614e+16,1.8878927219461555e+17,3.001744008363589e+17
960.1723378487239,6379810225151133.0,5.605497119818013e+17,1698053158634.7522,405174752011288.06,1291223244581701.5,1.533426064941756e+16,2.0538098065041066e+17,3.3175656440707034e+17
1057.1895716335964,6409325653306249.0,6.14753932248625e+17,1705908998188.59,435262566140122.56,1388284106286082.0,1.6674716958227172e+16,2.2313673635571974e+17,3.667079006999463e+17
1163.9085287969563,6441076601031665.0,6.739950749092227e+17,1714359844627.9373,466539549092367.0,1489388003542685.0,1.8108105610152704e+16,2.420859317567689e+17,4.0540231902879066e+17
1281.299381676652,6475227022162644.0,7.387106987885234e+17,1723449335978.9702,498882882868877.7,1594170405987161.0,1.9636500645993508e+16,2.6224761510386307e+17,4.482565792783135e+17
1410.4293198443174,6511938164647856.0,8.09372179145487e+17,1733220390067.8997,532140068462207.2,1702170321642422.5,2.126108694955316e+16,2.8362806563466806e+17,4.9573504478612275e+17
1552.4722518287492,6551366026244094.0,8.864870416771397e+17,1743714527327.4824,566128751363229.6,1812828239203512.8,2.298195965681561e+16,3.062181898882063e+17,5.483548254007772e+17
1708.7194770116243,6593658258730836.0,9.706015477718721e+17,1754971046821.4717,600637804139241.0,1925487843306450.5,2.4797910426445732e+16,3.299908082020104e+17,6.066912902661938e+17
1880.5914247127869,6638950503662566.0,1.0623035998767699e+18,1767026050966.7427,635429920058371.6,2039402372779767.8,2.6706207003968044e+16,3.548979331019567e+17,6.71383909948295e+17
2069.6505671840655,6687362171542208.0,1.1622260525468388e+18,1779911322116.3018,670245926678628.1,2153746389691739.0,2.870237538207448e+16,3.808681794439565e+17,7.431423633215699e+17
2277.615623902472,6738991718150187.0,1.2710505321339978e+18,1793653065304.8364,704810945128680.0,2267633508157219.0,3.077999717110635e+16,4.078044883741267e+17,8.227528167642634e+17
2506.3771862927197,6793911528786512.0,1.3895118846275297e+18,1808270546636.3806,738842394742909.1,2380140276213717.5,3.2930538392124564e+16,4.3558239061711584e+17,9.110842531480013e+17
2758.0149049219917,6852162594676107.0,1.5184033846413507e+18,1823774676353.968,772059673845966.9,2490335904078214.5,3.5143229503066004e+16,4.640490746595946e+17,1.0090946985314117e+18
3034.816395414191,6913749255267752.0,1.6585828459513981e+18,1840166609447.5505,804195143230381.6,2597316901073267.0,3.7405019611751144e+16,4.930235553199312e+17,1.1178371695535332e+18
3339.2980349556105,6978634382241340.0,1.8109797715870449e+18,1857436463827.2485,835005816280663.6,2700244963877777.0,3.970062987261455e+16,5.2229824902519565e+17,1.2384651500903713e+18
3674.227838451172,7046735488140056.0,1.9766036650346762e+18,1875562284595.1255,864284946654975.8,2798385727949167.5,4.201273117542354e+16,5.516422430481246e+17,1.3722374090860974e+18
4042.6506222962894,7117922341675810.0,2.1565535893350218e+18,1894509409333.8328,891872538767299.5,2891145364782779.5,4.43222684502315e+16,5.808064854314391e+17,1.5205220006987195e+18
4447.915684525919,7192016743877067.0,2.3520290041628544e+18,1914230408525.968,917663731736888.1,2978101619455767.0,4.660894726458387e+16,6.095310100866094e+17,1.6847993504861765e+18
4893.707252978511,7268795139808842.0,2.5643418305151094e+18,1934665780690.6157,941614065765195.6,3059025880595953.5,4.88518871210044e+16,6.37554141773305e+17,1.8666644318688445e+18
5384.077978276362,7347994682061236.0,2.7949295895001723e+18,1955745566244.1218,963740859645888.9,3133893375716569.5,5.103042974170742e+16,6.64623400969243e+17,2.0678281741262318e+18
5923.485776103998,7429323199173223.0,3.0453693411451914e+18,1977392000700.1328,984120311906025.8,3202879636530340.5,5.31250703060283e+16,6.905075643141144e+17,2.2901184059854408e+18
6516.834353714399,7512473239172374.0,3.317392021248565e+18,1999523252504.39,1002880451853810.2,3266342919731063.0,5.511845695499012e+16,7.150090633861967e+17,2.535480804773372e+18
7169.5177890858395,7597139959448186.0,3.6128966540024494e+18,2022058184611.2515,1020190636206266.1,3324794104623715.5,5.6996382144774456e+16,7.379756699076723e+17,2.8059804551915244e+18
7887.469567994424,7683042151407955.0,3.9339638235864765e+18,2044921950415.4543,1036248805348230.5,3378857403673506.0,5.874867305773748e+16,7.593102768989391e+17,3.103804680347412e+18
8677.216524793868,7769945186355049.0,4.282867737569171e+18,2068052101037.241,1051268063376913.2,3429226632198292.5,6.036988223046152e+16,7.789776006004562e+17,3.4312677468042173e+18
9545.938177273256,7857684240203451.0,4.662086222806422e+18,2091404766822.6936,1065464232233329.4,3476622434490877.0,6.185968814502324e+16,7.970068385367596e+17,3.790817833812941e+18
10501.531995000581,7946185903306386.0,5.07430806527028e+18,2114960409025.3367,1079045811885982.9,3521755543363814.0,6.322294091852351e+16,8.134897317259613e+17,4.1850462904068326e+18
11552.68519450064,8035486297697573.0,5.522437230019383e+18,2138728641899.111,1092207292165490.6,3565299879343184.0,6.446932905902134e+16,8.285740522868878e+17,4.616698716475607e+18
12708.953713950705,8125744152402616.0,6.009593652542026e+18,2162751712829.1536,1105126119056803.5,3607877353591131.0,6.561269397300326e+16,8.424531798372849e+17,5.088686868354994e+18
13980.849085345777,8217247904356555.0,6.539110441993253e+18,2187106392315.1829,1117962976291158.6,3650054097271277.5,6.6670070291348216e+16,8.553530137853001e+17,5.604099905832307e+18
15379.933993880357,8310416699077072.0,7.114527439544858e+18,2211904240311.214,1130864555788323.0,3692346021881549.0,6.766057118743212e+16,8.675178616818459e+17,6.166213167494582e+18
16918.927393268394,8405796005945703.0,7.739581095908573e+18,2237290439186.832,1143967758310581.2,3735230523382839.0,6.8604258977794744e+16,8.791970479264058e+17,6.778492557426303e+18
18611.820132595236,8504049264777569.0,8.418190552182409e+18,2263441570374.5195,1157404305628297.2,3779160935688280.5,6.952113697057951e+16,8.906337713558806e+17,7.444592765908304e+18
20474.00214585476,8605947401635419.0,9.154439632406082e+18,2290562823894.026,1171304993763669.5,3824580898933446.0,7.043036955864247e+16,9.020572553204673e+17,8.16834788366982e+18
22522.40236044024,8712358122226798.0,9.952554214333831e+18,2318885148678.1123,1185803161286592.2,3871936817499510.0,7.134979105755868e+16,9.136785997738374e+17,8.953753406516251e+18
24775.642596484264,8824236628365464.0,1.0816874185303472e+19,2348662781661.64,1201037272436686.5,3921687664024015.5,7.22957111589368e+16,9.25690114770836e+17,9.804939049146087e+18
27254.206856132692,8942618900189524.0,1.1751818968009372e+19,2380171459773.5635,1217152743029560.2,3974312237411101.0,7.328297831270218e+16,9.38267427688468e+17,1.0726132097956137e+19
29980.627541745966,9068618077933122.0,1.276184546560037e+19,2413707456907.45,1234303240831111.2,4030314459662304.0,7.432523124631347e+16,9.515733973639882e+17,1.1721611187504206e+19
32979.69029592056,9203423892876658.0,1.3851397259785454e+19,2449587432462.5527,1252651689547823.8,4090227409515926.5,7.543525724900312e+16,9.657628490644769e+17,1.2795650400892609e+19
36278.65932551262,9348304629648954.0,1.5024844012602628e+19,2488148953630.7144,1272371138589268.2,4154616651762692.5,7.662538208286835e+16,9.809873114326149e+17,1.395245353851823e+19
39907.525258063884,9504610787185110.0,1.6286410268158286e+19,2529751469797.978,1293645571985153.5,4224083166722003.0,7.790783442017907e+16,9.97399200041457e+17,1.5196078364419252e+19
43899.277783870275,9673779426379058.0,1.7640093210584824e+19,2574777469717.194,1316670648269924.2,4299265921182452.5,7.929504989437997e+16,1.0151551598905167e+18,1.6530350710026627e+19
48290.20556225731,9857338097139012.0,1.9089569390540374e+19,2623633526734.187,1341654300344498.0,4380843903519629.0,8.079989954192634e+16,1.0344184848584072e+18,1.7958768546205549e+19
53120.22611848305,1.0056907162932604e+16,2.0638090965693194e+19,2676750917488.8687,1368817078536465.2,4469537278437463.5,8.243584062531366e+16,1.0553606469877564e+18,1.948439653980925e+19
58433.24873033136,1.0274199231650156e+16,2.2288372588329755e+19,2734585470432.6353,1398392083198609.0,4566107181234276.0,8.421699357001733e+16,1.0781619967619652e+18,2.110975216491619e+19
64277.57360336451,1.0511014221470522e+16,2.404247068279318e+19,2797616252555.861,1430624296643902.5,4671353541499293.0,8.615814823937192e+16,1.1030116607870793e+18,2.28366850840909e+19
70706.33096370097,1.0769228325683168e+16,2.5901657435580658e+19,2866342632258.6357,1465769082292006.0,4786110185737199.0,8.827469823625802e+16,1.1301065936781633e+18,2.466625216972983e+19
77777.96406007107,1.1050774799463196e+16,2.7866292295445877e+19,2941279165548.8296,1504089569996631.8,4911236298363353.0,9.058249555726118e+16,1.1596496595847286e+18,2.659859109835689e+19
85556.76046607818,1.1357614104733434e+16,2.9935694048837104e+19,3022947649783.5186,1545852592565794.8,5047603154788442.0,9.309761138269562e+16,1.1918465408186568e+18,2.863279580383595e+19
94113.436512686,1.1691690572435648e+16,3.2108016482367115e+19,3111865588877.982,1591322787247002.2,5196074861009968.0,9.583598314869606e+16,1.226901205834338e+18,3.0766797093297787e+19
103525.78016395462,1.2054872464614856e+16,3.4380130165371707e+19,3208530240201.68,1640754437745410.0,5357481715674209.0,9.881292412883406e+16,1.26500962439468e+18,3.2997251299699835e+19
113879.3581803501,1.244887227696693e+16,3.6747511935082713e+19,3313397402267.178,1694380626827921.5,5532584790523011.0,1.020424704641125e+17,1.3063514052049992e+18,3.531943890832188e+19
125268.29399838512,1.2875144506927634e+16,3.920414231893047e+19,3426854204638.3955,1752399321827168.2,5722030495993840.0,1.0553654330283298e+17,1.3510790680771837e+18,3.772717370637142e+19
137796.12339822366,1.333475917216262e+16,4.17424096547068e+19,3549185443555.6494,1814956159603034.8,5926294369737758.0,1.0930391204100347e+17,1.3993047715823163e+18,4.021272141219649e+19
151576.73573804603,1.3828251385657514e+16,4.435301860604294e+19,3680533544776.612,1882123972638730.0,6145614224159547.0,1.1334896135186246e+17,1.4510845299042322e+18,4.2766725444670775e+19
166735.40931185064,1.4355450547125832e+16,4.702490092755871e+19,3820853101089.7974,1953879540775455.2,6379914235029970.0,1.1767029112884235e+17,1.5064002928116856e+18,4.537813727844228e+19
183409.95024303574,1.4915297336318832e+16,4.974512869314669e+19,3969862163180.0405,2030078682703453.2,6628723609069783.0,1.2225921647618096e+17,1.565140748584315e+18,4.803415065859601e+19
201751.94526733932,1.5505662538781598e+16,5.249883563379558e+19,4126994018222.7383,2110431596867750.5,6891096066043885.0,1.270982827606602e+17,1.627082322753231e+18,5.072014371108595e+19
221928.13979407327,1.6123188148616158e+16,5.5269161032772624e+19,4291354897740.0415,2194481234439986.0,7165539221434049.0,1.3215996330837264e+17,1.6918725181721715e+18,5.341964105133268e+19
244121.9537734806,1.6763176876688516e+16,5.8037241950961254e+19,4461694569075.18,2281588260622475.5,7449965481789909.0,1.3740575391258365e+17,1.7590183376815114e+18,5.611431866705345e+19
268535.1491508287,1.7419559225224536e+16,6.078229100780958e+19,4636397571972.964,2370926573295553.0,7741677412543593.0,1.427859031650688e+17,1.8278828479049316e+18,5.8784085457130955e+19
295389.6640659116,1.808496548814509e+16,6.34818046641329e+19,4813502382240.947,2461493102807407.5,8037399737365380.0,1.48240002844108e+17,1.897692752654418e+18,6.140728323680365e+19
324929.6304725028,1.875092171206918e+16,6.6111946483931685e+19,4990753568832.337,2552134483691226.5,8333366428532724.0,1.536985943487804e+17,1.967558970109361e+18,6.39610475060957e+19
357423.5935197531,1.9408173597160572e+16,6.864813772537502e+19,5165688003446.369,2641591139898188.0,8625464656632063.0,1.590858237564006e+17,2.0365106278582026e+18,6.642186087867876e+19
