t(s),Total solute volume 1,Total retention volume 1,Total 1 volume 1,Total 2 volume 1,Total 3 volume 1,Total 4 volume 1,Total 5 volume 1,Total 6 volume 1
1.0,3333434500519202.0,3351729361711353.0,18294861192158.418,0.0,0.0,0.0,0.0,0.0
2.1,5122949090461765.0,5151253924881161.0,28116231959284.562,16301385.481728494,114038759.95545548,3872966921.1610827,94042576620.81932,90556576417.32095
3.3100000000000005,6563496596374488.0,6600021534529874.0,36022371092495.95,43852349.041655146,306774225.5431665,10416657236.509987,252110103450.17645,239689675617.01953
4.641000000000001,7851466309214937.0,7895499600556980.0,43091119712763.805,82669318.53761017,578321413.2855833,19636010939.04357,474372158539.6989,447502469073.53656
6.105100000000002,9060129387888036.0,9111372725349142.0,49724610894872.695,133730855.14700297,935525991.5773921,31764587681.077988,766496570226.7635,719396151481.1135
7.7156100000000025,1.0226327174236452e+16,1.0284701348398978e+16,56125040457076.1,198522718.16338032,1388781713.9115071,47156593773.77376,1137025530678.9233,1063364276581.4061
9.487171000000004,1.137194941745936e+16,1.1437516776968518e+16,62412545607427.24,278937085.53000283,1951325435.968141,66263129457.679474,1596818350553.6377,1489502159183.0652
11.435888100000005,1.2511538674433808e+16,1.2584467233531412e+16,68666940064163.26,377261249.3137118,2639158044.7298617,89629672365.05577,2158996990772.3145,2009975951023.4124
13.579476910000007,1.3655590140843398e+16,1.3736136089287092e+16,74945824470826.98,496201620.3540956,3471212388.8040905,117901968664.03091,2839090293634.3267,2639164296558.2754
15.937424601000009,1.4812189332404192e+16,1.4900689027616942e+16,81293574458321.11,638927363.3909239,4469658531.994568,151836628692.02106,3655289566914.782,3393885972933.3257
18.53116706110001,1.5987907067866962e+16,1.608477454688848e+16,87746252566909.62,809128492.7182367,5660310163.64955,192315214614.58267,4628786142749.12,4293655658598.8477
21.384283767210015,1.718832574084361e+16,1.729405374125595e+16,94334496575376.52,1011086949.7967517,7073121819.728311,240361481432.04236,5784180331080.028,5360877815731.476
24.522712143931017,1.8418367289703744e+16,1.853353054301595e+16,101085319491222.66,1249760767.9414685,8742777642.66475,297161803446.92523,7149956380727.476,6620823098383.318
27.97498335832412,1.96825073615846e+16,1.9807767175473748e+16,108023284939357.22,1530882238.8379252,10709378064.486233,364089000577.74445,8759016673169.831,8101183015710.939
31.772481694156536,2.098491993304054e+16,2.1121029163421268e+16,115171300873658.28,1861071447.9743967,13019233951.646639,442729871971.1619,10649263393553.986,9831055936177.043
35.949729863572195,2.2329575637652252e+16,2.2477383346348596e+16,122551159215115.72,2247966733.0377493,15725779046.327284,534916773824.50055,12864210006911.908,11839448954696.44
40.544702849929415,2.37203045781391e+16,2.3880760134896588e+16,130183880566870.02,2700373484.0946794,18890610583.15883,642763537589.0577,15453600890879.064,14153720778067.38
45.59917313492236,2.516082607751833e+16,2.5334983100170884e+16,138089877478515.34,3228432121.3772097,22584663877.55918,768705892072.598,18474017708439.215,16798608477512.52
51.1590904484146,2.6654742056082788e+16,2.6843763054828028e+16,146288918077960.25,3843804918.0104985,26889518511.969494,915546302172.8748,21989456026010.844,19796345015695.38
57.27499949325607,2.8205487145527444e+16,2.841064973503286e+16,154799852266901.1,4559879474.301094,31898820743.686302,1086502744970.201,26071863361176.75,23167912432135.004
64.00249944258168,2.981622741070547e+16,3.0038932474093748e+16,163640055866052.66,5391984065.954362,37719788702.84147,1285260400214.6218,30801636507821.48,26934998841406.54
71.40274938683986,3.1489700992710664e+16,3.17314825270248e+16,172824556016691.16,6357606888.865564,44474744594.37906,1516024555094.016,36268077788341.734,31122043602521.37
79.54302432552385,3.322799838597293e+16,3.349053427064233e+16,182364825286988.2,7476607711.328138,52302593582.3013,1783572275350.8777,42569804978016.664,35757902927717.516
88.49732675807624,3.5032287172399852e+16,3.5317409932858784e+16,192267270954012.88,8771407104.079508,61360145696.77815,2093299683073.7305,49815099316391.87,40876958952743.71
98.34705943388387,3.690249478439179e+16,3.721220152572729e+16,202531493946872.94,10267135803.676779,71823158839.5981,2451261132829.345,58122164220498.95,46519731740623.37
109.18176537727226,3.8836971489369224e+16,3.917343242360725e+16,213148439248910.72,11991725347.771278,83886971076.46733,2864196303985.45,67619259026763.16,52733160962055.766
121.09994191499949,4.083216236865061e+16,4.11977276483042e+16,224098595670239.0,13975921177.16242,97766590822.6101,3339541295771.079,78444671366189.38,59570728809336.29
134.20993610649944,4.288232019184907e+16,4.327952503562062e+16,235350420070707.53,16253200982.509985,113696124626.094,3885420237413.105,90746500312593.25,67092553825304.28
148.6309297171494,4.497929029185384e+16,4.541085862656076e+16,246859156744127.47,18859584092.80449,131927443397.33649,4510614684586.358,104682239151043.7,75365537099566.23
164.49402268886433,4.711239436028891e+16,4.75812414037264e+16,258566199705058.72,21833322073.149937,152728018523.8586,5224509135269.384,120418168322957.11,84463604933596.77
181.94342495775078,4.926843375895869e+16,4.9777668134824776e+16,270399110909365.06,25214466497.456127,176377899871.0561,6037012363090.134,138128592018130.8,94468068209077.47
201.13776745352587,5.143182591833541e+16,5.198475203190305e+16,282272368887210.94,29044317404.400295,203165860407.52615,6958455986850.837,157994973145412.16,105468105370435.25
222.25154419887846,5.358488074117752e+16,5.418500226009066e+16,294088885753415.44,33364765720.4343,233384800505.99252,7999473866162.003,180205040079472.6,117561369648013.73
245.47669861876633,5.570821796913111e+16,5.6359243354757096e+16,305742297848291.2,38217555350.650276,267326591707.01593,9170868623127.584,204951955579461.2,130854719428058.75
271.024368480643,5.778132070643934e+16,5.848717183248648e+16,317120003629125.3,43643505633.79089,305276644446.8293,10483474837924.594,232433655390085.94,145465072039993.6
299.1268053287073,5.978321369002741e+16,6.054803866573669e+16,328106886183725.7,49681751465.087006,347508600191.5505,11948032069521.521,262852482372976.25,161520384731458.0
330.03948586157804,6.16932463906101e+16,6.25214377668029e+16,338589611063092.44,56369074420.25142,394279660298.1084,13575084376544.75,296415260565595.44,179160771452795.6
364.0434344477359,6.349195012461026e+16,6.438816968504226e+16,348461330283512.44,63739410194.59591,445827147501.5943,15374925750675.12,333333968349388.7,198539769490605.7
401.44777789250946,6.516192554792846e+16,6.613113685253433e+16,357626553053260.1,71823621162.65674,502366920209.5831,17357611903038.496,373827173948292.06,219825775159862.88
442.5925556817604,6.668870384094641e+16,6.773621356643725e+16,366005872096186.8,80649613184.06126,564094192079.207,19533057162515.957,418122380574701.75,243203671852068.72
487.8518112499365,6.8061514214729624e+16,6.919302310926254e+16,373540175835675.5,90242849116.24208,631187123028.431,21911229993408.61,466459382829888.6,268876675901776.38
537.6369923749302,6.92738852266462e+16,7.04955491444307e+16,380193948484974.44,100627266263.00847,703813231844.0189,24502451374748.7,519094652266487.0,297068425160220.3
592.4006916124232,7.032401078843832e+16,7.164251179539188e+16,385957278721945.25,111826543221.89294,782138249071.914,27317787272511.95,576306644988434.2,328025331178245.8
652.6407607736655,7.1214825737575576e+16,7.263745269624077e+16,390846274393565.9,123865589943.74791,866336528343.6494,30369510899720.902,638401763031529.0,362019208221973.44
718.9048368510321,7.195376077153226e+16,7.348849816016584e+16,394901717508441.2,136772064684.28398,956601644305.6433,33671594655836.156,705720521279546.6,399350181480756.4
791.7953205361354,7.255218048177203e+16,7.420780354156398e+16,398185980027282.9,150577667811.34036,1053155429969.8136,37240178671918.67,778643303505294.0,440349864489677.94
871.9748525897489,7.302454679066034e+16,7.481072051313618e+16,400778432619628.56,165318940668.63733,1156253554143.9438,41093956171658.54,857594976086189.9,485384785103418.7
960.1723378487239,7.338738690681811e+16,7.531476597260614e+16,402769780586707.0,181037319834.23096,1266185894155.8806,45254418224805.016,943047609208750.8,534860034553894.1
1057.1895716335964,7.365817272236898e+16,7.57384993811506e+16,404255913765215.7,197778266929.31256,1383270446840.8447,49745913141568.44,1035520663684619.9,589223119476630.8
1163.9085287969563,7.385423096373693e+16,7.610042807008618e+16,405331925215954.44,215589403916.1539,1507840287888.1724,54595497493586.7,1135578239039654.8,648968014908300.6
1281.299381676652,7.399179665928688e+16,7.641805365439354e+16,406086916465704.6,234517714056.35095,1640223999806.5022,59832582592409.64,1243823308047473.8,714639446287239.6
1410.4293198443174,7.408529700562325e+16,7.670714748076075e+16,406600067224323.56,254605991872.89832,1780720849718.8975,65488406195966.19,1360889209652419.0,786837465223183.2
1552.4722518287492,7.414691339681182e+16,7.698130382912403e+16,406938231717058.56,275888813621.3238,1929572614554.5515,71595377748097.94,1487428942832037.2,866222418586996.5
1708.7194770116243,7.418642461022288e+16,7.725177471412229e+16,407155078062517.06,298388333629.74554,2086934188027.842,78186351666915.19,1624102917614955.8,953520434033520.0
1880.5914247127869,7.421129356384494e+16,7.75275492501491e+16,407291564421538.44,322110187944.16156,2252844936764.6826,85293875539238.94,1771565739970157.8,1049529551248536.4
2069.6505671840655,7.422693182941171e+16,7.781561188017997e+16,407377390707139.75,347039719308.88104,2427202301932.9854,92949441104628.38,1930452360191939.8,1155126616743239.8
2277.615623902472,7.423706458294114e+16,7.812130182004754e+16,407433001515853.56,373138653984.76526,2609738559008.5503,101182741509945.98,2101363580030595.2,1271275036836999.2
2506.3771862927197,7.424412353233323e+16,7.844870059015718e+16,407471742602586.2,400342291872.33325,2800001165856.0513,110020915676547.89,2284850597868720.5,1399033458218319.0
2758.0149049219917,7.424961214340171e+16,7.88009911428843e+16,407501865322724.75,428557239807.4038,2997336908530.7554,119487745798698.58,2481398066662613.5,1539565427550342.8
3034.816395414191,7.4254409634049e+16,7.918075431265326e+16,407528195020001.56,457659731581.23083,3200880149978.142,129602770077689.4,2691405096938498.0,1694150076686653.8
3339.2980349556105,7.425900138986662e+16,7.959018975104373e+16,407553395598671.2,487494628826.51874,3409545840554.345,140380279459449.9,2915163756858542.0,1864193888791053.0
3674.227838451172,7.42636393663838e+16,8.00312647861829e+16,407578849846801.5,517875264616.28613,3622028422668.6953,151828181534557.22,3152834865262752.5,2051243619467652.0
4042.6506222962894,7.426844509091613e+16,8.050580410204658e+16,407605224733364.4,548584352959.6055,3836808190670.0283,163946733172557.3,3404421190104619.0,2257000470576344.5
4447.915684525919,7.427347077697336e+16,8.101553643925363e+16,407632806817729.9,579376221988.3158,4052166909023.8857,176727162877811.38,3669738511421167.5,2483335638032591.0
4893.707252978511,7.427873280597093e+16,8.156211364870501e+16,407661686004746.5,609980622799.0721,4266214450969.238,190150222723693.8,3948385363006539.5,2732307375925411.0
5384.077978276362,7.428422859845371e+16,8.214711457493744e+16,407691848137785.7,640108312710.7096,4476927847697.098,204184727865581.12,4239712627006745.0,3006179737313221.5
5923.485776103998,7.428994435769568e+16,8.277204309028198e+16,407723217497337.0,669458509391.4248,4682203422567.047,218786159546723.75,4542794525452072.0,3307443168158189.0
6516.834353714399,7.42958582395313e+16,8.343832706818963e+16,407755674197750.8,697728163149.7759,4879921641664.228,233895425548094.1,4856402932445666.0,3638837146661987.0
7169.5177890858395,7.430194146656771e+16,8.4147323446011e+16,407789060302280.7,724622805154.4756,5068022986450.437,249437889795483.53,5178987306341930.0,4003375077212000.0
7887.469567994424,7.430815866942942e+16,8.490033365719304e+16,407823181695913.06,749868511854.2139,5244591633125.601,265322798890461.66,5508662879836399.0,4404371667195926.0
8677.216524793868,7.431446807017274e+16,8.569863332240789e+16,407857809091991.06,773224300771.7192,5407942148996.391,281443245190802.7,5843209994905368.0,4845473036597287.0
9545.938177273256,7.43208217973722e+16,8.654351987848853e+16,407892679761469.2,794494069478.8492,5556702993803.04,297676810349071.5,6180087559171075.0,5330689834771290.0
10501.531995000581,7.432716647525195e+16,8.74363815432156e+16,407927500766204.3,813537044947.2958,5689889602542.973,313887025923039.1,6516463448383866.0,5864433666243127.0
11552.68519450064,7.433344416245234e+16,8.837879047420613e+16,407961954111117.9,830275664942.2715,5806959507917.748,329925764591606.6,6849264199982965.0,6451557157895229.0
12708.953713950705,7.433959367830432e+16,8.937262204848165e+16,407995704023078.44,844699902677.0955,5907842586854.782,345636632845301.7,7175245457137493.0,7097398033681866.0
13980.849085345777,7.434555232219331e+16,9.042020078783138e+16,408028406387162.5,856867292156.2131,5992941237553.913,360859371231828.25,7491083279257838.0,7807827600231349.0
15379.933993880357,7.435125795546024e+16,9.15244715707467e+16,408059720172580.8,866898311153.8873,6063098087759.07,375435181124532.4,7793484630003177.0,8589304087587231.0
16918.927393268394,7.435665137322056e+16,9.268919247498568e+16,408089320449755.8,874967295487.9863,6119532448850.3,389212790876546.5,8079313156566033.0,9448931334128524.0
18611.820132595236,7.4361678847478e+16,9.39191430597144e+16,408116912347493.4,881289621800.3151,6163750671839.7705,402054957061712.44,8345723948909630.0,1.0394523353623888e+16
20474.00214585476,7.436629467774714e+16,9.522033941200216e+16,408142245051366.3,886106409833.0131,6197439154724.688,413844981421558.44,8590298586545332.0,1.1434675375672152e+16
22522.40236044024,7.43704635480476e+16,9.66002452462925e+16,408165124739421.94,889668354611.7887,6222351264440.687,424492729146889.7,8811169815972525.0,1.257884200876717e+16
24775.642596484264,7.437416246787805e+16,9.80679672252412e+16,408185425234681.7,892220417318.238,6240200264547.146,433939580428374.2,9007124092698261.0,1.3837423238320152e+16
27254.206856132692,7.437738207793051e+16,9.963442293216307e+16,408203095171188.1,893988938883.0289,6252569187503.544,442161755910722.5,9177670404260116.0,1.5221859040764244e+16
29980.627541745966,7.438012713523346e+16,1.0131247192780216e+17,408218160656580.4,895172313354.9451,6260845604111.586,449171543964815.0,9323065599853126.0,1.6744733470176696e+16
32979.69029592056,7.43824160594124e+16,1.031170041942028e+17,408230722781864.8,895935754214.5577,6266185019108.244,455016129206192.5,9444290005259070.0,1.8419889156769864e+16
36278.65932551262,7.438427951794902e+16,1.0506498578897594e+17,408240949857014.25,896410036607.3895,6269502074428.2295,459773967481119.06,9542972193108972.0,2.0262553248468724e+16
39907.525258063884,7.43857581426734e+16,1.071754680829008e+17,408249064878554.75,896693542208.607,6271484851144.116,463548944355029.1,9621267823474846.0,2.2289475929125652e+16
43899.277783870275,7.438689958457128e+16,1.0946957354095614e+17,408255329365705.1,896856580414.7068,6272625092087.747,466462846984851.44,9681703537080428.0,2.4519082761281304e+16
48290.20556225731,7.438775520788547e+16,1.1197047642317856e+17,408260025216862.1,896946857651.3369,6273256454420.099,468646918398210.25,9727001839214984.0,2.697164222915091e+16
53120.22611848305,7.438837678607446e+16,1.1470339959166622e+17,408263436576286.56,896995093484.2429,6273308843644.7,470233396162203.1,9759905668694298.0,2.9669450000221916e+16
58433.24873033136,7.438881348927243e+16,1.1769565032450038e+17,408265833300617.75,897000359170.6143,6273345650826.207,471347927755284.5,9783021150192486.0,3.2637031577969668e+16
64277.57360336451,7.438910961357533e+16,1.2097671001809842e+17,408267458496690.9,897003929782.6703,6273370609427.254,472103598188930.44,9798693771793704.0,3.590136520150448e+16
70706.33096370097,7.438930299724886e+16,1.2457839336843574e+17,408268519829325.56,897006261567.2269,6273386908616.097,472597024170444.44,9808927415767686.0,3.9492127018249256e+16
77777.96406007107,7.43894243570808e+16,1.2853507999764682e+17,408269185879089.06,897007724901.6228,6273397137332.786,472906630710706.6,9815348639218134.0,4.344196077989584e+16
85556.76046607818,7.438949729070869e+16,1.3288402020133738e+17,408269586155070.6,897008604321.8154,6273403284485.498,473092894911700.8,9819211749870428.0,4.778677826780268e+16
94113.436512686,7.438953945375274e+16,1.3766568425245755e+17,408269817555238.56,897009112715.9994,6273406838164.04,473200098625304.94,9821435139817832.0,5.256606932675568e+16
103525.78016395462,7.438956255149691e+16,1.429242063019226e+17,408269944320797.5,897009391224.3213,6273408784938.974,473258990382800.1,9822656548832056.0,5.782328784871402e+16
113879.3581803501,7.438957512072893e+16,1.4870779708336883e+17,408270013303540.9,897009542781.7979,6273409844326.689,473259067808448.0,9823295582681582.0,6.360622687945929e+16
125268.29399838512,7.43895853946509e+16,1.55069040591348e+17,408270069689110.75,897009666662.8486,6273410710255.998,473259131093119.94,9823296492185420.0,6.996745908335272e+16
137796.12339822366,7.438958563418824e+16,1.620663931071855e+17,408270071003744.94,897009669551.146,6273410730445.231,473259132568611.9,9823296513384748.0,7.696481133564011e+16
151576.73573804603,7.438958564713203e+16,1.697634797001699e+17,408270071074783.9,897009669707.2179,6273410731536.183,473259132648341.25,9823296514530226.0,8.46618979143831e+16
166735.40931185064,7.43895856689345e+16,1.7823027294891392e+17,408270071194440.4,897009669970.1102,6273410733373.803,473259132782639.6,9823296516459722.0,9.312869113913968e+16
183409.95024303574,7.438958569336682e+16,1.8754374306095658e+17,408270071328530.56,897009670264.7095,6273410735433.046,473259132933135.6,9823296518621950.0,1.0244216122430027e+17
201751.94526733932,7.438958572024154e+16,1.9778855720575264e+17,408270071476025.4,897009670588.7598,6273410737698.167,473259133098676.7,9823296521000334.0,1.1268697533952798e+17
221928.13979407327,7.43895857498033e+16,2.0905784916116054e+17,408270071638266.5,897009670945.211,6273410740189.743,473259133280769.4,9823296523616496.0,1.2395626726241035e+17
244121.9537734806,7.438958578232106e+16,2.2145406595143e+17,408270071816731.25,897009671337.3031,6273410742930.486,473259133481071.06,9823296526494290.0,1.3635248401690291e+17
268535.1491508287,7.43895858180908e+16,2.35089899144308e+17,408270072013043.1,897009671768.6078,6273410745945.314,473259133701402.25,9823296529659838.0,1.499883171704253e+17
295389.6640659116,7.43895858574373e+16,2.5008930927200992e+17,408270072228985.94,897009672243.0415,6273410749261.604,473259133943767.2,9823296533141956.0,1.6498772725483603e+17
324929.6304725028,7.438958590071866e+16,2.6658865268728304e+17,408270072466522.9,897009672764.9186,6273410752909.531,473259134210368.5,9823296536972290.0,1.8148707062248966e+17
357423.5935197531,7.438958594832786e+16,2.847379210965992e+17,408270072727813.6,897009673338.9816,6273410756922.238,473259134503629.1,9823296541185660.0,1.9963633897942413e+17
393166.95287172846,7.438958600069798e+16,3.0470210503639654e+17,408270073015233.7,897009673970.4525,6273410761336.216,473259134826215.75,9823296545820336.0,2.1960052286160112e+17
432484.6481589014,7.438958605830522e+16,3.2666269368453696e+17,408270073331394.6,897009674665.0707,6273410766191.599,473259135181061.75,9823296550918506.0,2.4156111144635997e+17
475734.11297479155,7.438958612167317e+16,3.5081932463788294e+17,408270073679171.3,897009675429.1494,6273410771532.508,473259135571390.5,9823296556526476.0,2.6571774232998576e+17
523308.52427227073,7.438958619137786e+16,3.7739159864945286e+17,408270074061726.2,897009676269.6343,6273410777407.5,473259136000753.25,9823296562695232.0,2.922900162648631e+17
