t(s),Total solute volume 1,Total retention volume 1,Total 1 volume 1,Total 2 volume 1,Total 3 volume 1,Total 4 volume 1,Total 5 volume 1,Total 6 volume 1
1.0,2009788581989240.0,2010486324916216.0,697742926973.054,0.0,0.0,0.0,0.0,0.0
2.1,3054670960253724.0,3115101344352029.5,1060497140577.5293,41219090361.62166,139494025953.88037,1621907081382.6243,23516992679903.47,34050274080122.95
3.3100000000000005,3867179669053079.0,4026344823324059.0,1342577654263.2693,109544007741.01204,370720356605.4674,4311093351361.2383,62508792005643.445,90522426895356.56
4.641000000000001,4567064463463837.0,4862398144063187.0,1585558265501.5369,203828664976.47668,689800871505.4308,8023106612028.167,116330854100554.34,168500532084792.56
6.105100000000002,5198075693992057.0,5668603742420605.0,1804627883775.367,325133697299.18335,1100325561448.9666,12800463437209.744,185599618147756.22,268897879701059.47
7.7156100000000025,5781315534851734.0,6469017833388756.0,2007112599277.444,475461951581.0311,1609073210252.1555,18722961390660.13,271472049026090.47,393415640359157.0
9.487171000000004,6328502084768806.0,7279178124563506.0,2197080611199.9812,657407878048.6565,2224824909330.2,25893945890915.37,375446512999239.7,544256267505950.0
11.435888100000005,6846684567807789.0,8110637326972680.0,2376979214808.922,874027204334.5735,2957923058989.869,34435252364609.395,499289433323628.3,724019143998517.4
13.579476910000007,7340299933550459.0,8972947245289653.0,2548348796037.412,1128782546854.947,3820087366494.1294,44485148998130.05,645005446731148.9,935659497300538.6
15.937424601000009,7812200142089628.0,9874660214850694.0,2712179476368.9116,1425520991173.7021,4824339045529.413,56197553671864.11,814826029167631.2,1182474450408483.5
18.53116706110001,8264217835085502.0,1.0823891774004184e+16,2869107498154.4995,1768466797663.2024,5984976217162.382,69741865929689.27,1011207034605670.5,1468102487870347.8
21.384283767210015,8697501838550176.0,1.1828665447170726e+16,3019531701886.8726,2162221641192.954,7317574824763.278,85303119264879.27,1236830875405143.8,1796530285782699.2
24.522712143931017,9112728736602390.0,1.289714078469827e+16,3163686978751.7393,2611768599719.286,8839002256532.04,103082309326033.16,1494611252331259.5,2172104028603581.2
27.97498335832412,9510244267111628.0,1.4037776144063404e+16,3301693359284.9795,3122478053032.59,10567437456703.1,123296830957587.19,1787699462676603.5,2599543974448542.5
31.772481694156536,9890163978570072.0,1.5259455255774652e+16,3433590958656.903,3700114922584.2964,12522395603909.533,146181007871579.25,2119492051644332.8,3083962116203504.5
35.949729863572195,1.025245010435532e+16,1.6571595579954754e+16,3559366665292.0786,4350847643897.488,14724758686751.264,171986737719764.78,2493640136087478.0,3630883628796241.0
40.544702849929415,1.0596974427545614e+16,1.7984250379396212e+16,3678975965795.1797,5081259967864.404,17196815692764.598,200984304548904.16,2914061152304187.0,4246273443371055.0
45.59917313492236,1.0923572344147364e+16,1.9508212560798924e+16,3792361714207.1816,5898367085898.437,19962317477352.805,233463428137666.88,3384954032857809.0,4936569709378603.0
51.1590904484146,1.1232090310434508e+16,2.115512552910725e+16,3899470604406.144,6809637620285.469,23046551537630.992,269734623741618.2,3910818875377972.0,5708726059790841.0
57.27499949325607,1.1522426958060972e+16,2.2937604149288256e+16,4000267444132.9805,7823022722739.374,26476440908175.977,310130936624875.1,4496482033453876.5,6570264490073480.0
64.00249944258168,1.179456716895346e+16,2.4869367304929772e+16,4094746984846.494,8946992949422.287,30280669452525.438,355010096129159.8,5147127275044182.0,7529340355416201.0
71.40274938683986,1.2048608137547138e+16,2.6965382458486132e+16,4182942969805.816,10190582838322.512,34489833314058.164,404757108212401.8,5868333279393462.0,8594820574210984.0
79.54302432552385,1.2284776701356978e+16,2.9242022017348764e+16,4264934150760.574,11563442323202.121,39136615612972.305,459787278048608.75,6666117346878792.0,9776375698977440.0
88.49732675807624,1.2503437769105554e+16,3.1717231117900548e+16,4340847213959.8457,13075893377318.865,44255978970818.66,520549629371548.3,7546984834768530.0,1.1084586165092796e+16
98.34705943388387,1.2705094315027658e+16,3.4410706550917684e+16,4410856778171.958,14738989654483.738,49885368329338.7,587530667329959.6,8517983542688763.0,1.2531062811109336e+16
109.18176537727226,1.2890379982483276e+16,3.734408685177618e+16,4475182826861.509,16564576409571.234,56064914890170.6,661258417686861.2,9586762068922664.0,1.4128581708556712e+16
121.09994191499949,1.3060045753980178e+16,4.054115396453077e+16,4534086080388.996,18565347625586.51,62837630803250.07,742306666840669.5,1.0761631036722278e+16,1.5891233442478514e+16
134.20993610649944,1.3214942360398564e+16,4.402804727992944e+16,4587861888980.107,20754897016197.957,70249583360464.83,831299322992941.6,1.2051626028604246e+16,1.783458722566805e+16
148.6309297171494,1.3356000127143626e+16,4.7833491190843864e+16,4636833235867.868,23147759365819.23,78350036753445.47,928914816933373.4,1.3466571038550874e+16,1.9975870578860884e+16
164.49402268886433,1.3484207825259278e+16,5.198903757638703e+16,4681343394985.386,25759438467258.945,87191548772169.72,1035890459322248.8,1.5017141227650364e+16,2.2334165733520724e+16
181.94342495775078,1.3600591860152428e+16,5.652932480919043e+16,4721748705867.9375,28606417679596.805,96830009018485.52,1153026668132827.5,1.6714923720596188e+16,2.493062438490508e+16
201.13776745352587,1.370619683902528e+16,6.149235498251918e+16,4758411827204.396,31706148827666.547,107324604188258.16,1281190973477632.0,1.857247508554627e+16,2.7788702919626816e+16
222.25154419887846,1.3802068252797792e+16,6.691979108521253e+16,4791695724481.263,35077014784559.492,118737694687023.53,1421321696139286.2,2.0603373980131884e+16,3.093442075094745e+16
245.47669861876633,1.3889237720835238e+16,7.285727582510773e+16,4821958547361.638,38738260619965.77,131134585286053.19,1574431179849021.5,2.2822267208774744e+16,3.439664491119532e+16
271.024368480643,1.3968710997403592e+16,7.935477372719475e+16,4849549465859.502,42709887675163.87,144583170749063.28,1741608435080106.5,2.524490711196581e+16,3.820740457485523e+16
299.1268053287073,1.4041458737592248e+16,8.64669380208566e+16,4874805464524.687,47012504370819.84,159153435467146.88,1924021023456780.0,2.7888177791216436e+16,4.240223972328856e+16
330.03948586157804,1.4108409869738776e+16,9.4253503688535e+16,4898049041532.812,51667127013620.23,174916784288881.75,2122915976620521.5,3.077010716126772e+16,4.702058872056389e+16
364.0434344477359,1.4170447317966848e+16,1.0277970788171e+17,4919586723669.652,56694923407238.35,191945180142339.75,2339619501520411.0,3.3909861213738108e+16,5.21062201582114e+16
401.44777789250946,1.422840575587466e+16,1.1211673872422938e+17,4939708286474.235,62116891777362.94,210310063001938.97,2575535175780746.5,3.7327716176602184e+16,5.7707714952905784e+16
442.5925556817604,1.4283071042736854e+16,1.2234221332350757e+17,4958686558504.226,67953467497220.9,230081024618010.56,2832140282486749.5,4.1045003468535464e+16,6.387900535107463e+16
487.8518112499365,1.4335180988655766e+16,1.3354068560495611e+17,4976777686975.439,74224050481846.62,251324214647284.2,3110979874231741.5,4.508402148858846e+16,7.067997821066408e+16
537.6369923749302,1.4385427107354948e+16,1.458041843863191e+17,4994221746283.387,80946447065420.45,274100456934840.25,3413658092929146.5,4.946790737004023e+16,7.817715069024853e+16
592.4006916124232,1.4434457038259852e+16,1.5923278193469734e+17,5011243578882.723,88136221871540.05,298463060328132.9,3741826206796892.5,5.422046089375857e+16,8.64444272701035e+16
652.6407607736655,1.4482877347930612e+16,1.739351931267398e+17,5028053767867.156,95805957839063.52,324455317254791.75,4097166762167559.5,5.9365911846915304e+16,9.55639478408645e+16
718.9048368510321,1.4531256450845344e+16,1.9002940529983478e+17,5044849650984.551,103964426397794.75,352107696120501.7,4481373189806132.0,6.492862129311414e+16,1.0562703739389998e+17
791.7953205361354,1.4580127418221286e+16,2.0764333899126067e+17,5061816295781.852,112615675018511.89,381434751130707.5,4896124159398772.0,7.093270658070922e+16,1.1673526859048611e+17
871.9748525897489,1.4629990469296174e+16,2.269155400827372e+17,5079127364508.947,121758046182993.45,412431796071480.06,5343051950145538.0,7.740157957966411e+16,1.2900164911401214e+17
960.1723378487239,1.468131496147879e+16,2.4799590448964813e+17,5096945805043.834,131383150359394.0,445071417348800.75,5823704110904340.0,8.435738776401926e+16,1.425519461397324e+17
1057.1895716335964,1.4734540714000098e+16,2.7104643757075062e+17,5115424310427.563,141474825837468.84,479299936242891.9,6339497734105218.0,9.182034855128216e+16,1.575261603849719e+17
1163.9085287969563,1.4790078514844404e+16,2.962420520241361e+17,5134705494856.785,152008130104613.16,515033970335020.2,6891665781084627.0,9.98079690247959e+16,1.7408016189747658e+17
1281.299381676652,1.4848309674132818e+16,3.23771410342648e+17,5154921738630.825,162948420391586.1,552157287975405.9,7481195093478084.0,1.0833414610305546e+17,1.923874988418761e+17
1410.4293198443174,1.4909584500729258e+16,3.538378211135002e+17,5176194659271.581,174250594298300.22,590518194866278.2,8108756029954570.0,1.1740814672848694e+17,2.1264138887050634e+17
1552.4722518287492,1.4974219595236782e+16,3.8666020276454054e+17,5198634171726.894,185858573799567.88,629927734240596.8,8774624106221600.0,1.2703347410492192e+17,2.3505690001594838e+17
1708.7194770116243,1.5042493875011448e+16,4.2247413398648224e+17,5222337108365.673,197705125701159.28,670159015932716.0,9478594615506158.0,1.3720663479618536e+17,2.5987332422103782e+17
1880.5914247127869,1.5114643279260322e+16,4.615330171782368e+17,5247385380734.666,209712116525782.03,710948007313584.0,1.021989199017039e+16,1.4791583293684026e+17,2.8735674146274538e+17
2069.6505671840655,1.5190854149217684e+16,5.0410938999695494e+17,5273843681339.375,221791297173077.47,751996111528537.2,1.0997076647979662e+16,1.5913963210285805e+17,3.178027658445161e+17
2277.615623902472,1.5271255344685514e+16,5.5049643046826746e+17,5301756746725.534,233845699598151.97,792974815810721.6,1.1807953248128118e+16,1.7084564251040986e+17,3.515394570928886e+17
2506.3771862927197,1.5355909248696338e+16,6.010097129829325e+17,5331146234547.553,245771701414211.0,833532605341917.0,1.2649485635758028e+16,1.8298931073678893e+17,3.889303719086971e+17
2758.0149049219917,1.5444801930704594e+16,6.559892854919068e+17,5362007308501.592,257461772698520.03,873304199055418.2,1.3517725214104846e+16,1.9551291010549123e+17,4.3037772026254317e+17
3034.816395414191,1.5537832887512366e+16,7.158021516099076e+17,5394305076659.511,268807861824646.06,911921970770149.5,1.440776093268344e+16,2.0834485049958755e+17,4.763255831524518e+17
3339.2980349556105,1.56348049583818e+16,7.808452540471526e+17,5427971090275.96,279705305724986.06,949029178014636.2,1.5313700334323946e+16,2.2139944396462486e+17,5.272631423349913e+17
3674.227838451172,1.5735415208917334e+16,8.515490662604058e+17,5462900178925.228,290057069753065.3,984294348786873.9,1.6228691905080766e+16,2.3457727326962928e+17,5.837278715580617e+17
4042.6506222962894,1.5839247781494636e+16,9.283819054500937e+17,5498947968368.847,299778042264484.06,1017425903305478.5,1.7144998988487246e+16,2.4776630982859834e+17,6.463086459579762e+17
4447.915684525919,1.5945769891941452e+16,1.0118550796818066e+18,5535929490714.532,308799041939691.5,1048185856458165.6,1.805413437742079e+16,2.6084390956495754e+17,7.156487450195981e+17
4893.707252978511,1.6054332274860672e+16,1.1025289725079318e+18,5573619339020.344,317070157156955.0,1076401309365437.5,1.8947061998577268e+16,2.7367977497630298e+17,7.924487581723292e+17
5384.077978276362,1.6164175394886448e+16,1.201020147818797e+18,5611753823670.976,324563042039632.4,1101972448702446.8,1.98144675527306e+16,2.8613990462679498e+17,8.774694529998207e+17
5923.485776103998,1.627444259404146e+16,1.3080095244347894e+18,5650035536775.765,331271855287398.2,1124875972310673.6,2.06470934645262e+16,2.980914563287766e+17,9.715347341843113e+17
6516.834353714399,1.6384200986140714e+16,1.4242516244158559e+18,5688140606126.566,337212649660301.4,1145163264681517.2,2.143612526500467e+16,3.094083311325475e+17,1.0755349029772166e+18
7169.5177890858395,1.6492470307091e+16,1.550584843790805e+18,5725728711221.583,342421193899444.5,1162953230549066.2,2.2173607287884444e+16,3.199771525333826e+17,1.190430513509284e+18
7887.469567994424,1.6598259092309184e+16,1.6879426348514583e+18,5762455643061.531,346949412404344.94,1178420384590197.0,2.2852856561256936e+16,3.297031874364918e+17,1.3172571995087631e+18
8677.216524793868,1.6700606542783842e+16,1.837365433720837e+18,5797987838884.974,350860825732438.94,1191779471252248.0,2.346883676495329e+16,3.385156576954052e+17,1.4571318944328724e+18
9545.938177273256,1.6798627389068128e+16,2.0000131262414449e+18,5832017957701.772,354225524976362.1,1203268408646677.2,2.401845109789732e+16,3.4637185208115034e+17,1.611260869721745e+18
10501.531995000581,1.6891556156739476e+16,2.1771778305521674e+18,5864280248032.562,357115277386753.1,1213131583928648.5,2.450071566849605e+16,3.532594938463116e+17,1.780949953739053e+18
11552.68519450064,1.6978786696628356e+16,2.370296795210463e+18,5894564271706.93,359599317596210.3,1221605397963999.0,2.49167846217947e+16,3.591969625773227e+17,1.9676171620348908e+18
12708.953713950705,1.7059902865459948e+16,2.580965271462243e+18,5922725555330.759,361741232604524.7,1228907474395207.5,2.5269814341762156e+16,3.6423120508164736e+17,2.1728077777408108e+18
13980.849085345777,1.7134696938750826e+16,2.810949313616745e+18,5948691982732.579,363597131452823.1,1235230217950306.8,2.5564674724934308e+16,3.6843346871701357e+17,2.3982116971946593e+18
15379.933993880357,1.7203173678258776e+16,3.062198579888029e+18,5972465207068.83,365215054840749.6,1240738605605928.2,2.580753715789834e+16,3.7189329981603936e+17,2.645682643110185e+18
16918.927393268394,1.7265539768456294e+16,3.3368593272725053e+18,5994116983460.214,366635383046999.4,1245571416835675.8,2.600538700707843e+16,3.7471150574114566e+17,2.9172586938389565e+18
18611.820132595236,1.7322180252899194e+16,3.6372878940073334e+18,6013780988352.31,367891885783502.2,1249844705868061.8,2.6165518959683708e+16,3.769929223136142e+17,3.215183522108492e+18
20474.00214585476,1.7373625257221436e+16,3.9660650198929894e+18,6031641266662.394,369013041039884.8,1253656248168075.2,2.6295073772211644e+16,3.78839822318853e+17,3.541927797614229e+18
22522.40236044024,1.7420511344071026e+16,4.326011354371835e+18,6047918815285.347,370023317254445.1,1257089910633417.0,2.6400664674592948e+16,3.80346644664252e+17,3.9002103725422116e+18
24775.642596484264,1.7463542114498886e+16,4.720204443132359e+18,6062857904988.856,370944228278789.6,1260219280340339.5,2.648812329746141e+16,3.8159645483964915e+17,4.2930190965142236e+18
27254.206856132692,1.7503452154703754e+16,5.151997377409784e+18,6076713563723.656,371795091462598.4,1263110297191585.2,2.656237299914175e+16,3.826592308675558e+17,4.723631339286173e+18
29980.627541745966,1.7540977316583116e+16,5.625039156636454e+18,6089741258855.262,372593512735567.8,1265822957675855.5,2.66274170054694e+16,3.8359177862211674e+17,5.19563447748062e+18
32979.69029592056,1.7576832922191626e+16,6.143296677979409e+18,6102189330356.771,373355673489382.0,1268412335710209.8,2.66864141210593e+16,3.8443887640607654e+17,5.712946684331555e+18
36278.65932551262,1.7611700122363402e+16,6.711078144461557e+18,6114294254901.047,374096504706663.9,1270929208023129.8,2.6741808179987292e+16,3.8523516132980166e+17,6.27983833482242e+18
39907.525258063884,1.7646219573993126e+16,7.333057585988069e+18,6126278450788.1045,374829817630369.0,1273420520325233.0,2.6795478701275584e+16,3.8600729477304704e+17,6.900954216323339e+18
43899.277783870275,1.7680990959860114e+16,8.014300112634778e+18,6138350111241.513,375568433482397.5,1275929841291218.5,2.6848887236452652e+16,3.867760486167737e+17,7.581336549196825e+18
48290.20556225731,1.771657666024481e+16,8.760287455921552e+18,6150704479091.61,376324329789630.7,1278497866919044.0,2.690320351690997e+16,3.875580928117666e+17,8.326448610031455e+18
53120.22611848305,1.7753508001697154e+16,9.576943285985753e+18,6163526016174.659,377108803985420.0,1281162979951316.8,2.6959404782092724e+16,3.8836739651923034e+17,9.142198541372794e+18
58433.24873033136,1.7792292817142312e+16,1.047065770547259e+19,6176991027991.682,377932646889704.7,1283961840897506.8,2.7018348647525628e+16,3.89216252647578e+17,1.0034962739881523e+19
64277.57360336451,1.7833423421882578e+16,1.1448310203089553e+19,6191270432755.067,378806316956337.0,1286929980673056.8,2.7080823869948016e+16,3.90115990378565e+17,1.1011608037851111e+19
70706.33096370097,1.7877384448572466e+16,1.2517290194253142e+19,6206532481474.508,379740109038080.2,1290102374330086.2,2.714758473055291e+16,3.91077457886384e+17,1.2079511718171783e+19
77777.96406007107,1.792466024376877e+16,1.36855140798907e+19,6222945325833.76,380744311315122.25,1293513974135916.2,2.721937436694271e+16,3.921113507738722e+17,1.3246578213275326e+19
85556.76046607818,1.7975741699875404e+16,1.4961437516049381e+19,6240679390052.486,381829351010230.7,1297200204727685.2,2.729694117378157e+16,3.932284440522924e+17,1.4521251118888296e+19
94113.436512686,1.8031132492473404e+16,1.635406130574142e+19,6259909536313.818,383005926878109.44,1301197413221154.5,2.73810510516993e+16,3.944397663924889e+17,1.591251889255513e+19
103525.78016395462,1.8091354735075876e+16,1.787292899942889e+19,6280817027938.424,384285129320082.7,1305543277278560.8,2.7472497178205612e+16,3.9575673982489894e+17,1.742991229846708e+19
113879.3581803501,1.8156954070959976e+16,1.9528113920519385e+19,6303591297127.091,385678548541504.6,1310277172553736.8,2.7572108190349108e+16,3.971912971511952e+17,1.908349130179446e+19
125268.29399838512,1.8228504207473424e+16,2.1330192917227168e+19,6328431519145.856,387198370866568.2,1315440499903859.0,2.7680755299494172e+16,3.987559841316613e+17,2.088381870628625e+19
137796.12339822366,1.8306610875660976e+16,2.3290203681499775e+19,6355547986998.317,388857462846127.6,1321076971129986.2,2.7799358279798616e+16,4.0046404573344774e+17,2.284191737662888e+19
151576.73573804603,1.839191515849585e+16,2.5419581977868358e+19,6385163266894.8545,390669441953807.5,1327232849153525.2,2.7928890583173536e+16,4.0232949967199546e+17,2.4969207385000235e+19
166735.40931185064,1.848509609379769e+16,2.7730074593973424e+19,6417513101913.323,392648731875471.8,1333957135851113.8,2.8070383291143324e+16,4.043671932693843e+17,2.727741889793832e+19
183409.95024303574,1.858687240472782e+16,3.023362328053376e+19,6452847012778.463,394810599267222.1,1341301696931961.5,2.822492774185107e+16,4.0659284122344704e+17,2.977847607402052e+19
201751.94526733932,1.8698003151357708e+16,3.2942214414537994e+19,6491428524068.03,397171167595520.1,1349321308955462.2,2.839367651862867e+16,4.0902303977096506e+17,3.2484346711191982e+19
221928.13979407327,1.8819287025215776e+16,3.586768863363155e+19,6533534919298.5,399747402152315.25,1358073608420808.5,2.8577842377849944e+16,4.116752511629917e+17,3.540685189852005e+19
244121.9537734806,1.8951559923974628e+16,3.902150430565225e+19,6579456398923.187,402557058537989.9,1367618916744689.8,2.8778694565104372e+16,4.145677505176839e+17,3.855742954521376e+19
268535.1491508287,1.90956903440074e+16,4.241444848964746e+19,6629494480755.002,405618584792862.5,1378019907768010.2,2.8997551817755e+16,4.177195249425308e+17,4.1946845454556045e+19
295389.6640659116,1.925257201369235e+16,4.6056289114564846e+19,6683959442453.693,408950964918442.6,1389341076144416.2,2.9235771177559536e+16,4.2115011230760634e+17,4.558484568306554e+19
324929.6304725028,1.9423113060842268e+16,4.9955362583153164e+19,6743166560757.001,412573488778732.06,1401647955618072.0,2.949473154040415e+16,4.248793642214302e+17,4.947974440971946e+19
