t(s),Total solute volume 1,Total retention volume 1,Total 1 volume 1,Total 2 volume 1,Total 3 volume 1,Total 4 volume 1,Total 5 volume 1,Total 6 volume 1
1.0,3333434500519202.0,3351729361711353.0,18294861192158.418,0.0,0.0,0.0,0.0,0.0
2.1,5110652965672646.0,5157515193571296.0,28048747269165.387,1626225877.1042147,11376504540.150414,386367472045.99664,9381729683581.945,9032380743436.203
3.3100000000000005,6531010871165716.0,6616862012552077.0,35844080052296.05,4363530369.621777,30525587568.381744,1036513096656.3107,25086901684589.703,23848757434854.97
4.641000000000001,7790964601471146.0,7927214879268420.0,42759068890409.72,8203228626.10899,57386504254.27142,1948479909080.1487,47073949457157.914,44403189807746.57
6.105100000000002,8963179212044317.0,9162621005585062.0,49192520387623.35,13229983420.429165,92551528059.80775,3142491869009.8057,75834942652765.5,71166057119849.14
7.7156100000000025,1.008357650721668e+16,1.0360696975651354e+16,55341583675741.51,19575151217.237267,136939576434.0211,4649880528852.836,112126565832275.23,104845923670167.16
9.487171000000004,1.1172891511986108e+16,1.15441822767726e+16,61320058504494.7,27405448854.53603,191716930671.55777,6510410919000.101,156907285457495.28,146333887525995.7
11.435888100000005,1.2244296384122024e+16,1.2728579469717424e+16,67200237448129.83,36920307326.92474,258278725410.3104,8771668761872.689,211323315129285.25,196692665223378.7
13.579476910000007,1.3306699489809114e+16,1.3925480046238156e+16,73031012174200.55,48352401840.85789,338252657360.34894,11489203607879.709,276712439502812.78,257161296084976.3
15.937424601000009,1.4366373615126336e+16,1.5144226408491442e+16,78846809533012.83,61969699205.51854,433513308445.31586,14727035726728.736,354616465032200.2,329167000065535.0
18.53116706110001,1.5427838146084682e+16,1.639283225572336e+16,84672433213584.69,78078408388.07535,546202787012.8657,18558382232486.11,446798882223525.3,414340130773658.06
21.384283767210015,1.6494373726077772e+16,1.7678536643911056e+16,90525888330624.84,97026587750.74422,678755962843.6003,23066545170336.14,555266340590211.8,514528361191514.56
24.522712143931017,1.7568345469079944e+16,1.900816288585166e+16,96420155310582.44,119208334363.84132,833929773961.8035,28345945156981.46,682293432353956.0,631804745841844.4
27.97498335832412,1.8651426289529188e+16,2.038836748080426e+16,102364415589164.9,145068596599.94107,1014836893274.0035,34503311724547.996,830450819454522.4,768462739016976.1
31.772481694156536,1.9744771463094644e+16,2.1825824386304972e+16,108365009649442.47,175108747717.89526,1224984717932.91,41659064426792.92,1002637110044358.4,926991645624064.8
35.949729863572195,2.0849171233305084e+16,2.3327369809390204e+16,114426274568456.17,209893123476.38354,1468321100991.4675,49948934134578.766,1202115015466523.0,1110030137691166.5
40.544702849929415,2.1965189585627436e+16,2.4900121583395108e+16,120551305645561.75,250056724939.70023,1749288231269.5552,59525873189494.29,1432552006396594.8,1320303467579865.8
45.59917313492236,2.309328223262442e+16,2.6551580394038708e+16,126742603933629.34,296314187032.6981,2072885362977.0396,70562278862345.34,1698064840402796.5,1560559238665526.5
51.1590904484146,2.4233877625950836e+16,2.8289715485480196e+16,133002520849399.05,349469917074.3023,2444739722791.872,83252508042658.89,2003266148828972.2,1833522472168577.0
57.27499949325607,2.538740410592755e+16,3.0123034142842824e+16,139333407170556.72,410429065858.3115,2871183231639.592,97815604949969.64,2353310270445648.0,2141889142051575.8
64.00249944258168,2.655425408198927e+16,3.206063206144191e+16,145737416440761.56,480208785100.776,3359331219046.3315,114498117146127.94,2753935299915616.0,2488367605945981.0
71.40274938683986,2.7734677139513204e+16,3.4112221041719176e+16,152215918304484.75,559948878588.3479,3917156885417.96,133576796578016.1,3211497730556198.0,2875776351003284.5
79.54302432552385,2.8928683594726496e+16,3.628813093676223e+16,158768969190029.53,650922486777.3007,4553565993362.172,155361360586003.84,3733006867674445.5,3307105656105088.0
88.49732675807624,3.0135817673694464e+16,3.859928691265226e+16,165394067454727.56,754543046126.8151,5278445491949.734,180196425362522.7,4326140732973742.5,3785705024628706.0
98.34705943388387,3.1355030107276964e+16,4.105716663598085e+16,172085454162417.6,872370879408.8774,6102709567721.699,208463455764738.1,4999268366442287.0,4315344171887233.0
109.18176537727226,3.258451805737868e+16,4.367374815978024e+16,178833234568979.78,1006116079992.1584,7038319778574.494,240581951470151.9,5761462523489565.0,4900307957014469.0
121.09994191499949,3.382160610316407e+16,4.646146406270857e+16,185622724959815.88,1157638316388.363,8098283659897.47,277010051174188.06,6622509490787834.0,5545459770646446.0
134.20993610649944,3.5062672435990816e+16,4.943318038443182e+16,192434047606149.03,1328943134239.9756,9296628849022.764,318244479404540.25,7592915132804325.0,6256288716642836.0
148.6309297171494,3.630313104134387e+16,5.260221901659536e+16,199242032992236.12,1522174759971.743,10648352760083.871,364819861328021.94,8683907620308936.0,7038947933102168.0
164.49402268886433,3.7537477162202536e+16,5.59824393628668e+16,206016469345614.47,1739605731561.5828,12169350086811.156,417307506319981.75,9907438225092232.0,7900291044088079.0
181.94342495775078,3.875939841079397e+16,5.958838996446071e+16,212722712459722.34,1983624010291.2937,13876322706446.945,476313839156510.25,1.1276182758530886e+16,8847912296802802.0
201.13776745352587,3.996194814501027e+16,6.343553457167955e+16,219322637237438.25,2256718519644.2036,15786678601125.613,542478728369445.4,1.2803547360772002e+16,9890194303169542.0
222.25154419887846,4.113777214509973e+16,6.754055105256988e+16,225775881756323.1,2561464284648.3994,17918428000268.414,616474017778377.6,1.45036831723726e+16,1.1036365943277994e+16
245.47669861876633,4.227937510233038e+16,7.1921696486103656e+16,232041309828206.62,2900508491915.9087,20290085973803.96,699002606158078.4,1.6391514832957498e+16,1.2296572040363626e+16
271.024368480643,4.337941043837235e+16,7.659922822941845e+16,238078601599903.88,3276558847510.603,22920591102266.152,790798439543390.2,1.8482787743084252e+16,1.3681955856868678e+16
299.1268053287073,4.443097555449721e+16,8.159586866293848e+16,243849873950687.3,3692375562358.014,25829249516695.297,892627778142100.4,2.0794138626741188e+16,1.5204755204528222e+16
330.03948586157804,4.542789453990953e+16,8.693730039995782e+16,249321232059301.4,4150768120423.807,29035712379871.523,1005292070596785.2,2.3343193161801524e+16,1.6878412915090504e+16
364.0434344477359,4.6364971370756216e+16,9.265267861484467e+16,254464159014057.44,4654597655940.917,32559992579448.414,1129632706493473.5,2.6148693291025816e+16,1.8717702497319828e+16
401.44777789250946,4.7238198522455816e+16,9.87751475054504e+16,259256660718465.06,5206785261824.45,36422522878292.3,1266537818698326.5,2.9230655255502276e+16,2.0738869939935332e+16
442.5925556817604,4.8044908646703784e+16,1.0534234864559618e+17,263684098320871.7,5810325872834.489,40644253023104.99,1416951169723489.2,3.2610557395048856e+16,2.2959792756903196e+16
487.8518112499365,4.878386054574858e+16,1.1239691014705442e+17,267739660051273.56,6468306548799.21,45246777592271.32,1581882987361299.5,3.631155438976889e+16,2.5400157479983164e+16
537.6369923749302,4.945525507130345e+16,1.1998690725087019e+17,271424448468039.75,7183927098520.252,50252480179563.44,1762422428929728.2,4.0358712019872536e+16,2.8081656875018164e+16
592.4006916124232,5.006068158136331e+16,1.2816628727251302e+17,274747186590699.8,7960520138376.231,55684673592382.28,1959751172027354.5,4.477925393330515e+16,3.1028208205495956e+16
652.6407607736655,5.0603000793477896e+16,1.3699525466315942e+17,277723574962654.7,8801566988537.807,61567710912245.52,2175157476894013.8,4.960280962182949e+16,3.426619391809467e+16
718.9048368510321,5.1086174698118024e+16,1.4654061507568314e+17,280375358168626.62,9710705379241.566,67927039256058.4,2410049962784441.5,5.48616510939451e+16,3.78247262180318e+16
791.7953205361354,5.151505800989461e+16,1.568760803496616e+17,282729180264341.25,10691724838018.764,74789167366625.55,2665970301397735.5,6.0590904790951384e+16,4.173593717494886e+16
871.9748525897489,5.189516790705389e+16,1.6808253880082867e+17,284815321048616.6,11748545871406.508,82181519856712.5,2944604055472198.0,6.6828725169663624e+16,4.603529628186251e+16
960.1723378487239,5.223244924506854e+16,1.8024829669792554e+17,286666407497567.1,12885179601469.11,90132154753208.36,3247788968263966.0,7.361641694923648e+16,5.076195779350438e+16
1057.1895716335964,5.253305104079841e+16,1.934692970387338e+17,288316187055436.75,14105665285809.104,98669326359288.55,3577520117287992.5,8.099849401214227e+16,5.595914068980475e+16
1163.9085287969563,5.280312712253115e+16,2.0784932058092266e+17,289798433554375.5,15413984038288.418,107820881664499.11,3935951455293113.0,8.902266398329509e+16,6.1674544720546376e+16
1281.299381676652,5.304866995944335e+16,2.2350017161448445e+17,291146035231343.1,16813947984134.783,117613484940558.69,4325393345291895.5,9.773972819106654e+16,6.796080665052688e+16
1410.4293198443174,5.3275383769238184e+16,2.4054184679786045e+17,292390298313496.44,18309065423283.68,128071674534420.52,4748305853001921.0,1.0720338917398322e+17,7.487599696336582e+16
1552.4722518287492,5.348858940119936e+16,2.5910268474378768e+17,293560424994387.5,19902380149605.07,139216738890787.31,5207286675316396.0,1.1746993940124686e+17,8.24841897219902e+16
1708.7194770116243,5.369317997421346e+16,2.7931948039084288e+17,294683269966656.75,21596293972144.816,151065475093041.3,5705055147189507.0,1.2859785706459285e+17,9.08560431658154e+16
1880.5914247127869,5.3893591073009544e+16,3.0133755584186323e+17,295783176852627.4,23392364636768.56,163628775325888.94,6244428965339512.0,1.406472372671189e+17,1.0006949421958002e+17
2069.6505671840655,5.409380966118748e+16,3.253107627191592e+17,296882027122790.3,25291093612958.668,176910142460994.25,6828295682994534.0,1.536790976918833e+17,1.1021047641989736e+17
2277.615623902472,5.429738708301165e+16,3.514014005750242e+17,297999311453414.25,27291698043424.81,190904094856077.03,7459575119783158.0,1.6775447776565434e+17,1.2137376550222302e+17
2506.3771862927197,5.450747548368464e+16,3.7978001969731584e+17,299152329611087.3,29391884280445.938,205594582272070.4,8141174413987598.0,1.829333658347521e+17,1.3366386516872802e+17
2758.0149049219917,5.472686266329307e+16,4.1062508450874976e+17,300356381740318.75,31587623779297.6,220953418286340.7,8875932266846512.0,1.9927338406870458e+17,1.4719600808609843e+17
3034.816395414191,5.495800800348188e+16,4.44122470872294e+17,301624965538457.06,33872945377377.727,236938827344083.28,9666551773694614.0,2.1682822064850406e+17,1.620972537083546e+17
3339.2980349556105,5.520307395455259e+16,4.8046477344542086e+17,302969949064993.06,36239756669323.74,253494195362814.9,1.05155201980144e+16,2.3564577967252054e+17,1.7850769571923587e+17
3674.227838451172,5.5463949875849416e+16,5.198504046428389e+17,304401701583713.56,38677710097426.42,270547133155216.56,1.1425014265738168e+16,2.5576602635609107e+17,1.965817876003245e+17
4042.6506222962894,5.574226587964241e+16,5.62482475916237e+17,305929169541503.56,41174131389552.98,288008976016076.5,1.239678979115546e+16,2.77218513089414e+17,2.1648979487907773e+17
4447.915684525919,5.6039395050762376e+16,6.085674660364685e+17,307559888750379.56,43714029207013.445,305774851423797.3,1.3432054887441304e+16,3.000195847495466e+17,2.3841938257933702e+17
4893.707252978511,5.635644302170705e+16,6.583137011353343e+17,309299927173244.3,46280204799729.21,323724446350138.0,1.4531326726009872e+16,3.241692805159049e+17,2.6257734629338883e+17
5384.077978276362,5.669422442575496e+16,7.119296988091688e+17,311153755692981.8,48853478538011.48,341723592182242.1,1.5694272860847852e+16,3.496479755408752e+17,2.89191495155279e+17
5923.485776103998,5.705322629992332e+16,7.696224649557887e+17,313124047259233.56,51413045843621.73,359626754852110.6,1.6919539603243426e+16,3.7641284030580845e+17,3.185126948988595e+17
6516.834353714399,5.743355915002911e+16,8.315958782863341e+17,315211408321970.94,53936967837919.84,377280467365026.7,1.8204571891674036e+16,4.0439423912930854e+17,3.508170792717978e+17
7169.5177890858395,5.783489721154502e+16,8.980493540412456e+17,317414050969245.6,56402791779522.34,394527670245093.25,1.9545431603892636e+16,4.3349224214267206e+17,3.864084385701435e+17
7887.469567994424,5.825641052682966e+16,9.691770445458401e+17,319727420151580.75,58788283321867.39,411212834179208.0,2.093662431039579e+16,4.635734858930951e+17,4.256207952778664e+17
8677.216524793868,5.8696692874564696e+16,1.0451679071103277e+18,322143798142706.7,61072237622907.01,427187634220347.56,2.237094799376148e+16,4.9446868339955686e+17,4.688211791724576e+17
9545.938177273256,5.91536913480229e+16,1.1262070438084819e+18,324651918050004.75,63235320948387.055,442316837244812.06,2.3839381046333184e+16,5.259711490112986e+17,5.164126183265832e+17
10501.531995000581,5.962464542291533e+16,1.2124787834834775e+18,327236629406567.4,65260880931323.81,456483970067170.8,2.533103050638245e+16,5.578367572699037e+17,5.688373688038732e+17
11552.68519450064,6.010604549968576e+16,1.304172020079244e+18,329878670644205.94,67135654962889.68,469596274844319.3,2.683316434825454e+16,5.897857845148056e+17,6.26580415116047e+17
12708.953713950705,6.0593622802761144e+16,1.4014883247041907e+18,332554613661335.4,68850305334401.94,481588452415123.5,2.8331352772531356e+16,6.21507069616894e+17,6.901732861405952e+17
13980.849085345777,6.108238363476643e+16,1.504653290007195e+18,335237051821658.94,70399719245511.0,492424760646138.8,2.980974166379091e+16,6.526648558650395e+17,7.601982473118866e+17
15379.933993880357,6.156670060866588e+16,1.6139314226371223e+18,337895100661145.56,71783032755863.06,502099181492641.56,3.125147539699689e+16,6.829085203093388e+17,8.372929490072099e+17
16918.927393268394,6.204047082671235e+16,1.729644656431688e+18,340495266014439.6,73003369010893.47,510633589115754.06,3.2639274854235412e+16,7.118851467485915e+17,9.221556317780092e+17
18611.820132595236,6.249734537060484e+16,1.852194212792335e+18,343002703513104.6,74067318578063.16,518074113768916.94,3.3956159369213164e+16,7.392545549741448e+17,1.0155510089425155e+18
20474.00214585476,6.293102566185071e+16,1.9820851055495094e+18,345382845081975.44,74984226719229.55,524486154935963.44,3.5186279061344652e+16,7.647059851530547e+17,1.1183169624465238e+18
22522.40236044024,6.333561077129262e+16,2.1199521260244687e+18,347603305054914.25,75765380546941.3,529948693953512.8,3.631579910190633e+16,7.879752043566396e+17,1.2313721944150725e+18
24775.642596484264,6.370596718496321e+16,2.2665857324328228e+18,349635909534526.5,76423200504353.38,534548636779191.8,3.733375426190245e+16,8.088604331126528e+17,1.3557249701264824e+18
27254.206856132692,6.4038081523416904e+16,2.4229560116157875e+18,351458632195146.5,76970531010693.14,538375850474280.8,3.823277653048116e+16,8.272352831831892e+17,1.4924830653650176e+18
29980.627541745966,6.432935055879878e+16,2.590232886362277e+18,353057185960205.94,77420095548561.25,541519350190537.25,3.900959681929213e+16,8.4305694981141e+17,1.642864992541077e+18
32979.69029592056,6.457876459879762e+16,2.769801082166796e+18,354426029451860.6,77784139294019.84,544064798442151.25,3.966523820605385e+16,8.563682738202716e+17,1.8082125305744865e+18
36278.65932551262,6.478695145647757e+16,2.9632690504928927e+18,355568608303731.2,78074239445294.92,546093178011955.6,4.020485339127482e+16,8.672929761523572e+17,1.990004533467016e+18
39907.525258063884,6.495606785845417e+16,3.1724719904491633e+18,356496759180571.6,78301232087429.61,547680280695007.75,4.063720842743835e+16,8.760242800827036e+17,2.1898719558086024e+18
43899.277783870275,6.508954955865835e+16,3.3994701519064156e+18,357229338342345.94,78475193060320.33,548896574444902.06,4.097386884361082e+16,8.828081075961202e+17,2.4096140248021765e+18
48290.20556225731,6.519175496692306e+16,3.6465445260174377e+18,357790265793928.6,78605419916619.55,549807078660495.75,4.122819094313867e+16,8.879228591748054e+17,2.6512155181682043e+18
53120.22611848305,6.526755389924012e+16,3.916192628384079e+18,358206268250548.2,78700386282440.61,550471046725240.3,4.1414249196947e+16,8.916582704855002e+17,2.916865177101139e+18
58433.24873033136,6.532191900697071e+16,4.211127220711649e+18,358504636806481.7,78767668008464.92,550941451252886.25,4.154583371862017e+16,8.942958704224248e+17,3.208975383807559e+18
64277.57360336451,6.5359571581034616e+16,4.534280475769614e+18,358711283026513.0,78813861955887.67,551264417601887.5,4.1635629805984776e+16,8.960931397778e+17,3.530203345042216e+18
70706.33096370097,6.5384718155916264e+16,4.888815361661638e+18,358849293367987.56,78844526985065.52,551478812308496.5,4.1694650903794296e+16,8.972726994608479e+17,3.8834741205084073e+18
77777.96406007107,6.540089363653903e+16,5.278145105289516e+18,358938068225126.7,78864171596110.16,551616157377492.25,4.173194720191728e+16,8.980169219400721e+17,4.2720059241137807e+18
85556.76046607818,6.541090865755203e+16,5.705960642681827e+18,358993033025103.44,78876301612956.1,551700588453792.7,4.175456766040893e+16,8.984675096810615e+17,4.699338086759712e+18
94113.436512686,6.541688000054429e+16,6.176265323507722e+18,359025805165290.94,78883501983450.47,551750929522426.6,4.176771763155647e+16,8.98728893300305e+17,5.169362172338638e+18
103525.78016395462,6.542031916989737e+16,6.693415691262196e+18,359044680138681.25,78887649005900.64,551779923243125.25,4.177504095464477e+16,8.988740434692634e+17,5.686356575416014e+18
113879.3581803501,6.54222493477407e+16,7.262167167483942e+18,359055273410389.56,78889976454772.52,551796195496597.4,4.177895382091737e+16,8.989512611301846e+17,6.255024961739729e+18
125268.29399838512,6.5423326949630744e+16,7.887723711280655e+18,359061187543973.9,78891275849698.42,551805280157038.0,4.178097236603036e+16,8.989907993816978e+17,6.880538854839757e+18
137796.12339822366,6.5423950928728344e+16,8.575790951423103e+18,359064612088572.3,78892028256756.58,551810540576228.0,4.178199585293111e+16,8.990105664159014e+17,7.568584671044612e+18
151576.73573804603,6.542435098211883e+16,9.332632753398657e+18,359066807676019.4,78892510649503.61,551813913202270.7,4.1782527893879544e+16,8.990205683624636e+17,8.325415532928666e+18
166735.40931185064,6.5424652518711704e+16,1.0165131587675412e+19,359068462580019.2,78892874248629.72,551816455287807.56,4.1782834577372696e+16,8.990260773666245e+17,9.157908245420581e+18
183409.95024303574,6.542492104992923e+16,1.108085331708697e+19,359069936342722.9,78893198049180.62,551818719123151.75,4.1783001536100696e+16,8.99029715610194e+17,1.0073625897037222e+19
201751.94526733932,6.542519083064589e+16,1.208811712792894e+19,359071416962970.94,78893523356400.78,551820993492052.8,4.178316927059779e+16,8.990323496661007e+17,1.1080886632227783e+19
221928.13979407327,6.542547263584519e+16,1.3196072664829446e+19,359072963576416.56,78893863162992.58,551823369232496.2,4.178334448089943e+16,8.990351010674906e+17,1.2188838956449223e+19
244121.9537734806,6.542577863744831e+16,1.4414782262222512e+19,359074642985436.94,78894232146112.36,551825948959059.5,4.178353473475837e+16,8.990380886468274e+17,1.340754506537937e+19
268535.1491508287,6.542611418466383e+16,1.575531273919914e+19,359076484547750.9,78894636755947.67,551828777767944.4,4.178374335818541e+16,8.990413646609217e+17,1.4748071717096286e+19
295389.6640659116,6.542648300471702e+16,1.7229835704448633e+19,359078508719249.7,78895081486864.64,551831887081286.8,4.178397266858919e+16,8.990449655060114e+17,1.622259047779204e+19
324929.6304725028,6.542688862238105e+16,1.8851737702201147e+19,359080734844721.2,78895570589108.8,551835306614457.3,4.178422485745537e+16,8.990489255933701e+17,1.7844487851515906e+19
357423.5935197531,6.542733476452356e+16,2.063574125710239e+19,359083183378096.7,78896108556614.5,551839067786562.25,4.178450224190193e+16,8.990532813042776e+17,1.9628486320431976e+19
