t(s),Total solute volume 1,Total retention volume 1,Total 1 volume 1,Total 2 volume 1,Total 3 volume 1,Total 4 volume 1,Total 5 volume 1,Total 6 volume 1
1.0,4415721353870918.5,4533726731914417.0,118005378043497.7,0.0,0.0,0.0,0.0,0.0
2.1,6738042840611221.0,6982939346168439.0,180066481348215.38,13127238444.347015,138636156832.782,5960213535577.565,46048863616799.445,12669183661340.305
3.3100000000000005,8569045410587948.0,8968323855967339.0,228997702415028.28,35054969403.93503,370182655345.4429,15806127533322.076,120358885216920.55,33710492589374.41
4.641000000000001,1.017054681793396e+16,1.0756846963223078e+16,271795804143660.75,65573002507.96375,692419889798.6029,29441133955795.668,221536304589818.3,62768909707555.13
6.105100000000002,1.1638714629366218e+16,1.2449034015358952e+16,311030737541895.2,105201079726.07835,1110835136439.5222,47094442672967.85,350817429671851.44,100160739889881.33
7.7156100000000025,1.3020509003344116e+16,1.409635186481275e+16,347957450632347.75,154799843683.22348,1634513921560.938,69143491338195.94,510498774312647.9,146453831420225.8
9.487171000000004,1.4342479110225722e+16,1.5730309569516662e+16,383285435131488.1,215469204138.66907,2275067412308.3125,96070199021806.62,703600326723231.9,202383961797966.75
11.435888100000005,1.5620948361802676e+16,1.7372783014096806e+16,417450913035841.94,288516057063.0512,3046291783098.5757,128447328561498.75,933764165939132.5,268837436917480.5
13.579476910000007,1.6866428487994628e+16,1.9040519619622052e+16,450734796877473.0,375446138085.1848,3964082294310.4443,166935263918031.1,1205227880875385.2,346853661524185.56
15.937424601000009,1.8085806710894624e+16,2.074740038648407e+16,483321139016444.94,477966259978.2367,5046456975835.741,212283322972306.25,1522829962531139.8,437634827833754.9
18.53116706110001,1.928353944130301e+16,2.25057040895516e+16,515329031590752.8,597991677548.5592,6313634445505.107,265333379699799.62,1892032478600133.8,542558132234871.2
21.384283767210015,2.046235417579688e+16,2.4326880256342092e+16,546831363788605.7,737656198096.1117,7788140730025.629,327024799737162.25,2318955178233765.0,663188941857544.2
24.522712143931017,2.1623688310999228e+16,2.6222062222401376e+16,577866548584942.9,899323785475.7036,9494931878748.19,398400174599393.9,2810418256345587.0,801294676208033.5
27.97498335832412,2.2767978897970684e+16,2.8202435704899156e+16,608446266049748.6,1085600905994.3134,11461524438266.883,480611551354641.1,3373992123562580.0,958859740617241.0
31.772481694156536,2.3894864564805028e+16,3.027952484862723e+16,638560859465451.4,1299349118197.229,13718128533241.238,574926960936489.9,4018052995896532.5,1138101989872284.5
35.949729863572195,2.500333465749266e+16,3.2465431110479348e+16,668183320919054.6,1543697566209.9312,16297779960792.826,682737113570772.6,4751843416603096.0,1341491124366748.8
40.544702849929415,2.609184679009265e+16,3.4773046306183996e+16,697272432671044.1,1822055163210.6045,19236469043432.477,805562181492405.5,5585537097856034.0,1571769279865301.5
45.59917313492236,2.7158426186215284e+16,3.721625333773208e+16,725775421917453.6,2138122379593.8855,22573265334029.906,945058640317149.6,6530307744556091.0,1831973957012413.2
51.1590904484146,2.820075550609875e+16,3.981012358266427e+16,753630361288399.5,2495902696582.0596,26350438806626.375,1103026198313552.2,7598401792956321.0,2125463382504044.5
57.27499949325607,2.9216260839895216e+16,4.2571117177554104e+16,780768466890546.4,2899713959842.5347,30613579998223.44,1281414911822814.8,8803215268020448.0,2455944396966982.5
64.00249944258168,3.0202197453601132e+16,4.551729069385387e+16,807116389736763.6,3354200072558.4297,35411723726024.67,1482332667670218.8,1.0159375252748026e+16,2827503006299136.5
71.40274938683986,3.1155737287491264e+16,4.866851556402853e+16,832598554007452.6,3864343700631.1606,40797483463453.375,1708053309959943.2,1.168282679086754e+16,3244637794538050.0
79.54302432552385,3.2074058899158676e+16,5.204670983453705e+16,857139560640201.6,4435480914327.728,46827206112221.58,1961025796928699.8,1.3390926428174394e+16,3712296462608465.0
88.49732675807624,3.295443939415007e+16,5.56760852676153e+16,880666644036094.8,5073318942782.022,53561159568035.1,2243884888345094.0,1.5302544048575376e+16,4235915813997761.0
98.34705943388387,3.379434684981549e+16,5.958341141404398e+16,903112141948801.6,5783958444499.574,61063767872376.01,2559463977018856.0,1.7438175190755782e+16,4821465528188240.0
109.18176537727226,3.4591530821805676e+16,6.379829799961847e+16,924415914138943.5,6573921866756.583,69403910538775.17,2910810778793086.0,1.9820066675819988e+16,5475495976655187.0
121.09994191499949,3.534410778635381e+16,6.8353496798443976e+16,944527625699512.4,7450189547527.041,78655303502018.94,3301206673627396.5,2.247235925263373e+16,6205189967080112.0
134.20993610649944,3.605063792233943e+16,7.328522411152995e+16,963408798955544.1,8420245184379.38,88896978842510.06,3734190541820893.0,2.5421252413534096e+16,7018417210853114.0
148.6309297171494,3.671018963619625e+16,7.86335050427494e+16,981034537815891.0,9492132167043.164,100213879107332.05,4213587977880406.5,2.8695199396479316e+16,7923787483103106.0
164.49402268886433,3.732238890052599e+16,8.444254098049635e+16,997394846301240.9,10674522123491.477,112697580526626.9,4743546843167571.0,3.232514651988279e+16,8930691767968698.0
181.94342495775078,3.788745207029351e+16,9.076110205940088e+16,1012495505544116.9,11976797058345.951,126447159774019.44,5328580358638179.0,3.634484368734788e+16,1.0049306480744624e+16
201.13776745352587,3.840620348663761e+16,9.764294688205522e+16,1026358544272483.8,13409146993201.031,141570224596215.06,5973619536632097.0,4.079127578448628e+16,1.1290510158436992e+16
222.25154419887846,3.88800822666686e+16,1.0514727238540165e+17,1039022420321608.1,14982686306222.908,158184142335899.62,6684077832216895.0,4.570529397310265e+16,1.266562906444984e+16
245.47669861876633,3.931114328639431e+16,1.1333919735365323e+17,1050542046984286.0,16709593268849.031,176417514178603.38,7465931877116160.0,5.113252494134013e+16,1.418592809437061e+16
271.024368480643,3.970204831016838e+16,1.2229028356343923e+17,1060988556045350.5,18603274661396.67,196411915152628.38,8325820276404076.0,5.712449317040203e+16,1.5861918060605548e+16
299.1268053287073,4.005601826999506e+16,1.3207909871408334e+17,1070448022556127.0,20678543218743.223,218323769876954.22,9271152551569526.0,6.373947420524455e+16,1.7703003351622488e+16
330.03948586157804,4.037669891810807e+16,1.4279182505977235e+17,1079017874515507.6,22951772579892.8,242325989133566.28,1.031020464117923e+16,7.1042205571982504e+16,1.971842029227369e+16
364.0434344477359,4.066794026719569e+16,1.5452291730236093e+17,1086800998533137.8,25440998181648.305,268609032518478.78,1.1452181231997748e+16,7.91022945660711e+16,2.191965020786322e+16
401.44777789250946,4.093358417681424e+16,1.6737581359060125e+17,1093900063208253.8,28165984280079.49,297381611919927.1,1.270726272852014e+16,8.79928838928868e+16,2.4322635132971544e+16
442.5925556817604,4.117734110611895e+16,1.8146370512008698e+17,1100414225484822.9,31148302190727.137,328871515065077.2,1.4086672535662806e+16,9.779111953079717e+16,2.6948137904767184e+16
487.8518112499365,4.1402731124368584e+16,1.969103725481898e+17,1106437554295936.1,34411421164946.76,363326564698349.44,1.5602769103001402e+16,1.0857993481696507e+17,2.9820761963695492e+16
537.6369923749302,4.161303792905317e+16,2.1385109974930192e+17,1112057801824686.4,37980783952039.83,401015416940834.6,1.7269145229226974e+16,1.2044985784937048e+17,3.2968004738933696e+16
592.4006916124232,4.1811267923988856e+16,2.3243367576370358e+17,1117355309963773.4,41883854951434.055,442228070305202.6,1.910072681054195e+16,1.3350033055313738e+17,3.641988324081479e+16
652.6407607736655,4.200012817162877e+16,2.528194937255373e+17,1122402421146866.2,46150146585251.63,487276144741684.06,2.1113874997922296e+16,1.4784066548107408e+17,4.020899636243869e+16
718.9048368510321,4.2182030800712904e+16,2.751847519906945e+17,1127263596153808.2,50811232010469.1,536493016478696.94,2.3326497895015124e+16,1.6359085561762374e+17,4.437079983269992e+16
791.7953205361354,4.235912141218557e+16,2.997217589791384e+17,1131996173229939.5,55900747855225.055,590233847508726.1,2.5758176002197476e+16,1.8088236174293062e+17,4.894396905323077e+16
871.9748525897489,4.253332409307816e+16,3.2664034032309677e+17,1136651571024926.5,61454385810800.01,648875497299683.2,2.843030367654326e+16,1.99858928755735e+17,5.397080234360421e+16
960.1723378487239,4.2706395008172584e+16,3.561693449683176e+17,1141276720756530.8,67509868243587.33,712816265620594.6,3.1366247694450292e+16,2.206774468329353e+17,5.949765257813886e+16
1057.1895716335964,4.28799780272395e+16,3.8855824558233376e+17,1145915552769295.2,74106900513574.28,782475389247543.1,3.45915233994264e+16,2.435088579956856e+17,6.557538831745243e+16
1163.9085287969563,4.305565800766976e+16,4.240788274685148e+17,1150610420435381.2,81287091176034.67,858292199401262.8,3.813398869756979e+16,2.6853910132792144e+17,7.225988972434098e+16
1281.299381676652,4.323500942576763e+16,4.6302695869834374e+17,1155403399754156.0,89093830516124.25,940724839104561.2,4.202405621678275e+16,2.95970085322611e+17,7.961258566380843e+16
1410.4293198443174,4.3419639713538456e+16,5.057244320055976e+17,1160337447463939.2,97572117814880.08,1030248439111723.9,4.629492421548322e+16,3.260206714684387e+17,8.77010386037467e+16
1552.4722518287492,4.361122784260218e+16,5.525208658835398e+17,1165457432140452.8,106768328357706.47,1127352657530584.5,5.098282729110316e+16,3.589276483367644e+17,9.659958399504224e+16
1708.7194770116243,4.381155946127722e+16,6.0379564808845e+17,1170811073184726.2,116729912564708.61,1232538502705229.5,5.61273086100155e+16,3.9494666959048723e+17,1.0639003093821504e+17
1880.5914247127869,4.402256034443343e+16,6.599598991810217e+17,1176449834723576.8,127505021948257.4,1346314383487191.2,6.177151630880458e+16,4.343531221040043e+17,1.1716243118362136e+17
2069.6505671840655,4.424633017776235e+16,7.214584265974753e+17,1182429828448431.0,139142060208011.1,1469191369084568.2,6.796252799908164e+16,4.774428813074467e+17,1.2901592385544278e+17
2277.615623902472,4.448517887930951e+16,7.887716307311982e+17,1188812784260815.5,151689163110898.84,1601677697029547.0,7.47517091015775e+16,5.245328993912092e+17,1.4205966371470098e+17
2506.3771862927197,4.474166785808387e+16,8.624173132128874e+17,1195667152856175.2,165193618478401.1,1744272648828414.0,8.219511327569554e+16,5.759615573979178e+17,1.5641384126102714e+17
2758.0149049219917,4.501865890675892e+16,9.429523234320197e+17,1203069412320134.5,179701248394553.84,1897460026767544.8,9.035393683633789e+16,6.320886935048197e+17,1.7221080349662006e+17
3034.816395414191,4.531937390071631e+16,1.0309739615383749e+18,1211105663511236.8,195255790631136.75,2061701622428014.0,9.929504423123077e+16,6.932951956092197e+17,1.895962847206383e+17
3339.2980349556105,4.564746920672437e+16,1.1271210335370029e+18,1219873618539893.8,211898336451599.88,2237431280246334.8,1.0909158902259888e+17,7.59982014800675e+17,2.0873075727176806e+17
3674.227838451172,4.600712977446999e+16,1.2320744249456814e+18,1229485115245542.0,229666908802958.66,2425050442681563.5,1.1982376519163091e+17,8.325684148370883e+17,2.297909126757633e+17
4042.6506222962894,4.640318938159067e+16,1.346557021312113e+18,1240069330589562.5,248596299980931.2,2624926433436596.0,1.3157973792972987e+17,9.114892177673361e+17,2.529712841694493e+17
4447.915684525919,4.684128550943888e+16,1.471332752965444e+18,1251776919503887.5,268718332638672.7,2837395207200606.5,1.4445682236251587e+17,9.97190732583491e+17,2.7848602205065373e+17
4893.707252978511,4.7328059876954e+16,1.6072044721961523e+18,1264785373881298.5,290062763377739.6,3062770877473732.5,1.5856300338703514e+17,1.0901249561828102e+18,3.0657083373461984e+17
5384.077978276362,4.787141864202285e+16,1.7550102755986058e+18,1279305976079477.2,312659113129963.4,3301365017350832.5,1.7401891897564058e+17,1.1907415070972073e+18,3.3748510077717395e+17
5923.485776103998,4.84808692214917e+16,1.9156177512781548e+18,1295592799917659.2,336539777577882.1,3553519452446313.5,1.9096045800493712e+17,1.2994765865579187e+18,3.7151418546386323e+17
6516.834353714399,4.9167952320166904e+16,2.0899154451416417e+18,1313954255936375.0,361744828406746.5,3819656864809820.0,2.0954213833214483e+17,1.4167380586240154e+18,4.089719399161622e+17
7169.5177890858395,4.994678525033789e+16,2.2788005855224717e+18,1334767610623398.2,388328926253677.75,4100353619881232.0,2.299414003582926e+17,1.5428855185595704e+18,4.502034311975128e+17
7887.469567994424,5.083472023470974e+16,2.483161767904859e+18,1358496578203789.0,416370654606141.94,4396438029159983.0,2.523638124339904e+17,1.678204032925928e+18,4.955878970482622e+17
8677.216524793868,5.185308876872665e+16,2.703854889379931e+18,1385711211895916.5,445984212584064.9,4709113309853998.0,2.7704882253459706e+17,1.8228702197054605e+18,5.455419496368142e+17
9545.938177273256,5.302793414058164e+16,2.9416702021438566e+18,1417107478132288.8,477332548701979.1,5040095426768984.0,3.042749276879209e+17,1.97690975377804e+18,6.00523051083712e+17
10501.531995000581,5.439050964834397e+16,3.1972881213544325e+18,1453520568514668.8,510639385622198.75,5391738732916634.0,3.343617622465806e+17,2.1401466529217626e+18,6.61033297850691e+17
11552.68519450064,5.597713138092033e+16,3.471221794909946e+18,1495920962256175.2,546194978575418.1,5767094799358538.0,3.676645605563189e+17,2.3121473166881546e+18,7.276235755443604e+17
12708.953713950705,5.782775743263989e+16,3.7637461314326344e+18,1545376453117393.5,584347199184864.4,6169815620536503.0,4.045542003731437e+17,2.4921664360610176e+18,8.008981982929978e+17
13980.849085345777,5.998255369904387e+16,4.0748168388286817e+18,1602960369804749.5,625467267565306.9,6603788775895240.0,4.453751954904885e+17,2.6791067806883123e+18,8.815200925375606e+17
15379.933993880357,6.247593187370192e+16,4.4039894454104484e+18,1669592245296768.8,669881359037478.1,7072412868644307.0,4.90377291050026e+17,2.8715074569701576e+18,9.70216879043581e+17
16918.927393268394,6.5328359277838424e+16,4.750356037921179e+18,1745818945186868.8,717769236950197.2,7577527132712269.0,5.3962627828923264e+17,3.0675725162866903e+18,1.0677877687525732e+18
18611.820132595236,6.85375277985766e+16,5.112522980197425e+18,1831578676174741.2,769048613505525.2,8118194738965708.0,5.929141705596833e+17,3.26524097969094e+18,1.1751114801195773e+18
20474.00214585476,7.20716215357802e+16,5.488651247197151e+18,1926021088698790.5,823281523116132.0,8689724108683939.0,6.496997955642147e+17,3.462285751052132e+18,1.2931550523245222e+18
22522.40236044024,7.586751323075053e+16,5.876569499485455e+18,2027459101764216.0,879643336037924.8,9283356072948144.0,7.091076190186798e+17,3.6564204784834857e+18,1.4229834302417807e+18
24775.642596484264,7.983534277023659e+16,6.273951504653314e+18,2133491281079520.5,936978345007446.0,9886865638962940.0,7.699931734804558e+17,3.8453959283684316e+18,1.5657697247691418e+18
27254.206856132692,8.386865831477858e+16,6.678531974703177e+18,2241272863483598.2,993934125439430.1,1.048599068047712e+16,8.31058304116481e+17,4.0270776533277245e+18,1.7228061612747907e+18
29980.627541745966,8.785732068292694e+16,7.08832662434974e+18,2347860612111031.5,1049136854503545.2,1.1066284286043616e+16,8.909833992033352e+17,4.1995067848781926e+18,1.8955158378326185e+18
32979.69029592056,9.169966595785674e+16,7.501826546801881e+18,2450537834196143.0,1101357199294270.5,1.1614858268786856e+16,9.485441510404585e+17,4.360950498161763e+18,2.085465478339521e+18
36278.65932551262,9.53112022386002e+16,7.918150348667696e+18,2547046768875651.0,1149626108939530.0,1.2121591635716202e+16,1.0026934283073957e+18,4.509948067782252e+18,2.2943793858259039e+18
39907.525258063884,9.86288025596991e+16,8.337152254920513e+18,2635700613604475.0,1193284163154702.8,1.2579636182634662e+16,1.0526050490570067e+18,4.645354985384334e+18,2.5241547969600876e+18
43899.277783870275,1.0161099994153077e+17,8.759493732047632e+18,2715391388628515.5,1231972952356019.2,1.2985312611043242e+16,1.0976875526418689e+18,4.766383643312845e+18,2.776878859199353e+18
48290.20556225731,1.0423588455591654e+17,9.186687598719042e+18,2785533727362274.5,1265591215282761.0,1.3337638874769592e+16,1.1375796473295178e+18,4.872635941684472e+18,3.0548473613317253e+18
53120.22611848305,1.0649809081212789e+17,9.621119472315714e+18,2845984352261645.0,1294239222139120.0,1.3637738606761656e+16,1.1721364205947937e+18,4.964121502344505e+18,3.360585496383114e+18
58433.24873033136,1.084058209767797e+17,1.006604607282052e+19,2896962531881791.0,1318167187120936.2,1.3888295253399564e+16,1.2014107325092506e+18,5.041255326310346e+18,3.6968707680517396e+18
64277.57360336451,1.0997821395138856e+17,1.0525567204734548e+19,2938979765382526.0,1337733673877113.5,1.4093113865909926e+16,1.225630266919322e+18,5.104830631160103e+18,4.0667582653985664e+18
70706.33096370097,1.1124296724821014e+17,1.1004569478192536e+19,2972776236135060.5,1353373073840261.2,1.425678016470308e+16,1.2451691860129075e+18,5.155965893589031e+18,4.47360850186769e+18
77777.96406007107,1.122340078645954e+17,1.1508644212321692e+19,2999258574218584.0,1365568476928652.5,1.4384377612132662e+16,1.2605138872879409e+18,5.196029071708807e+18,4.921118040797074e+18
85556.76046607818,1.1298909540985176e+17,1.2043987510677567e+19,3019435809995627.5,1374826700070899.5,1.4481227996235806e+16,1.272224023336826e+18,5.226545745266307e+18,5.413353156158273e+18
94113.436512686,1.135473950246496e+17,1.2617295157882454e+19,3034354521193349.5,1381654150112272.0,1.4552641139890608e+16,1.28089163004781e+18,5.249100673180369e+18,5.954786809818436e+18
103525.78016395462,1.1394717982335942e+17,1.3235667304423936e+19,3045037441178392.5,1386534123834697.5,1.4603679627061984e+16,1.2871021917204155e+18,5.265243417106448e+18,6.550339264581607e+18
113879.3581803501,1.1422386932392973e+17,1.3906537277679387e+19,3052431045089902.0,1389907291924722.0,1.4638956544861016e+16,1.2914014739063153e+18,5.276407944383684e+18,7.205422695183594e+18
125268.29399838512,1.1440858170657771e+17,1.4637635502848645e+19,3057366865815247.0,1392157273639889.0,1.4662486051762928e+16,1.2942710623976056e+18,5.283853642243082e+18,7.925990206310171e+18
137796.12339822366,1.1452729763161432e+17,1.5436994315469343e+19,3060539151264333.5,1393602573071934.0,1.467760004828002e+16,1.2961140734770342e+18,5.288631486755218e+18,8.718589715832841e+18
151576.73573804603,1.1460063350943843e+17,1.6312993660458293e+19,3062498806702361.0,1394494651691422.8,1.4686928621437946e+16,1.2972508573443794e+18,5.291575036730223e+18,9.590423210794433e+18
166735.40931185064,1.1464413105831091e+17,1.7274442656200393e+19,3063661132756267.0,1395023768100467.0,1.4692461602828662e+16,1.2979230921880604e+18,5.293312354632002e+18,1.0549411931818332e+19
183409.95024303574,1.1466891190303429e+17,1.8330688645808902e+19,3064323317657964.0,1395325209182194.5,1.4695613760963792e+16,1.2983037667443103e+18,5.294292615227068e+18,1.1604268089646696e+19
201751.94526733932,1.1468252173228741e+17,1.9491744418344395e+19,3064686994655493.5,1395490762902690.5,1.469734494447151e+16,1.298510241929818e+18,5.294820368591089e+18,1.2764573763389184e+19
221928.13979407327,1.1468980816858778e+17,2.076842524124437e+19,3064881700201165.0,1395579397117097.2,1.4698271784261922e+16,1.298617889387664e+18,5.295091104766788e+18,1.4040867706039736e+19
244121.9537734806,1.1469371664595757e+17,2.2172489786493354e+19,3064986141134696.5,1395626940906996.5,1.4698768944517452e+16,1.2986724708331722e+18,5.295223441460387e+18,1.5444740775527297e+19
268535.1491508287,1.1469593721477989e+17,2.3716782112404845e+19,3065045478379255.5,1395653952512620.2,1.46990514014728e+16,1.2987002110208663e+18,5.295285300603224e+18,1.6988940912733624e+19
295389.6640659116,1.1469738538450675e+17,2.541537450534161e+19,3065084175851242.5,1395671568443051.0,1.4699235608666848e+16,1.298715279708915e+18,5.29531332560949e+18,1.8687488523285692e+19
