t(s),Total solute volume 1,Total retention volume 1,Total 1 volume 1,Total 2 volume 1,Total 3 volume 1,Total 4 volume 1,Total 5 volume 1,Total 6 volume 1
1.0,2490588835008749.5,2493364850322479.5,2776015313740.5356,0.0,0.0,0.0,0.0,0.0
2.1,3827693463471463.0,3832055552280582.0,4266354688195.917,19635944.7798394,90325582.77657557,1663389143.5878928,32627793734.2127,61332976526.31509
3.3100000000000005,4904076996107234.0,4909800510698370.0,5466093832533.81,52818004.10568271,242963393.56479523,4474808596.46319,87767653194.953,164882515386.49542
4.641000000000001,5866481399167373.0,5873505385182348.0,6538791626338.432,99561391.47691062,457983418.88684446,8436085346.848063,165455873711.89313,310744884776.68915
6.105100000000002,6769655166637072.0,6777985475432046.0,7545470843598.89,161039064.99241564,740781280.1498413,13647262092.651648,267654810385.8553,502634058553.36456
7.7156100000000025,7641128144570619.0,7650810075703802.0,8516816302279.792,239033106.01690748,1099554568.8930464,20260194286.400867,397342671541.2688,746173377387.4114
9.487171000000004,8497259506375145.0,8508367752793671.0,9471061967777.355,335812682.340358,1544741477.3714447,28468288263.059624,558312395319.2302,1048523213005.8622
11.435888100000005,9348919396132084.0,9361554261267924.0,10420323723129.982,454119641.7152574,2088954528.969194,38505372714.129486,755149546661.7201,1418343419141.7327
13.579476910000007,1.0203953918592206e+16,1.021824042636941e+16,11373346851391.416,597196397.448331,2747108851.661077,50648176249.01034,993280847678.025,1865887596654.959
15.937424601000009,1.1068407026495376e+16,1.1084495651688184e+16,12336867953386.232,768837063.6432712,3536657398.778176,65220805212.28759,1279061791460.8687,2403169148297.5933
18.53116706110001,1.1947184550463828e+16,1.1965253026954346e+16,13316355076454.746,973455276.5805042,4477902923.8020735,82600674087.3454,1619892482166.2388,3044176899622.29
21.384283767210015,1.284443652878449e+16,1.286469248650332e+16,14316433859645.53,1216166193.2435014,5594375166.378833,103225686111.77274,2024357574121.807,3805130057589.1025
24.522712143931017,1.37637799071506e+16,1.3786464215852774e+16,15341135754915.002,1502881324.3904588,6913267072.073749,127602563078.11435,2502388162637.9116,4704766073144.3955
27.97498335832412,1.4708417643106852e+16,1.4733808394979716e+16,16394030780824.26,1840414617.2943954,8465922754.2525215,156316205997.28723,3065443177066.9272,5764655371592.57
31.772481694156536,1.5681179519801384e+16,1.5709596598894078e+16,17478273013364.35,2236597023.109289,10288364478.404806,190039872092.887,3726706017448.703,7009535228283.974
35.949729863572195,1.6684495957522418e+16,1.6716306137941252e+16,18596571396136.656,2700394935.2947,12421837446.916117,229545801019.61154,4501289284866.489,8467651704400.476
40.544702849929415,1.7720311556069902e+16,1.775593405157773e+16,19751093374602.008,3242025694.154564,14913341082.882784,275715741474.1026,5406436994599.931,10171094030375.062
45.59917313492236,1.878994645029126e+16,1.882985881188215e+16,20943310362992.15,3873061245.210936,17816105818.616867,329550654314.1685,6461710315498.597,12156101091006.57
51.1590904484146,1.9893918208186804e+16,1.9938662439039988e+16,22173799232084.668,4606509472.486651,21189967188.498085,392178738358.2981,7689140394602.225,14463316011463.998
57.27499949325607,2.103174251283482e+16,2.108193124660632e+16,23442020149535.574,5456862066.893871,25101585986.20376,464860871005.4591,9113330809315.371,17137963493562.299
64.00249944258168,2.220173510583283e+16,2.225805767802351e+16,24746095826399.574,6440098208.240549,29624465170.899364,548992592365.6772,10761492937327.896,20229926271239.414
71.40274938683986,2.340083899224412e+16,2.3464067227325532e+16,26082618920219.195,7573634794.82373,34838720902.37206,646101885183.1744,12663399987480.229,23793701932857.01
79.54302432552385,2.4624499273716996e+16,2.469549281340215e+16,27446512524563.555,8876216258.581623,40830575683.80807,757842197493.2885,14851249283324.979,27888228887868.742
88.49732675807624,2.5866603723652784e+16,2.5946314734236456e+16,28830963934732.406,10367739954.696556,47691555165.40187,885980403589.7803,17359427291870.266,32576579658343.543
98.34705943388387,2.711950152191215e+16,2.7208978641567376e+16,30227445530143.875,12069016635.85439,55517386360.00072,1032379695094.2814,20224177695714.418,37925530331292.37
109.18176537727226,2.837410672789912e+16,2.847449815031544e+16,31625830106151.914,14001469736.384392,64406614410.49888,1198977748589.6765,23483179698417.11,44005026779006.17
121.09994191499949,2.962008802453429e+16,2.973264366733997e+16,33014602363386.918,16186782384.281471,74458978933.99625,1387760954580.6611,27175052188720.812,50887581537640.13
134.20993610649944,3.084614228175877e+16,3.097221506225519e+16,34381163822286.266,18646507509.418045,85773620636.53215,1600736040323.7454,31338809848161.703,58647650657536.51
148.6309297171494,3.204034615953064e+16,3.2181392501769988e+16,35712224720323.57,21401664144.894928,98447224440.15057,1839901081474.704,36013309862148.32,67361057686877.33
164.49402268886433,3.3190576468409948e+16,3.334815629755964e+16,36994272546270.67,24472351521.256245,112572244472.03801,2107218636349.151,41236741862986.305,77104551508118.95
181.94342495775078,3.4284985498864124e+16,3.4460762139037184e+16,38214101842378.55,27877420621.32472,128235393373.3349,2404594454570.9336,47046227252490.18,87955603809646.83
201.13776745352587,3.531251160529185e+16,3.5508252176050984e+16,39359383301224.77,31634248576.39727,145516604660.49277,2733865750841.54,53477604127913.81,99992566725875.97
222.25154419887846,3.62633982768251e+16,3.648097536304955e+16,40419242321687.71,35758662227.34598,164488681206.47156,3096803192141.7603,60565476836327.73,113295316530927.44
245.47669861876633,3.712968779838681e+16,3.737108332119407e+16,41384809243018.42,40265050881.49174,185217813963.45187,3495130311861.4546,68343600709986.16,127946499677546.72
271.024368480643,3.790565005605096e+16,3.8172962365722744e+16,42249697290610.734,45166692884.9626,207765084162.2444,3930562868964.685,76845649591907.86,144033468143296.97
299.1268053287073,3.858810498084874e+16,3.888356019128197e+16,43010361971125.9,50476295534.80824,232188946793.58087,4404868649854.601,86106375102486.77,161650939467392.53
330.03948586157804,3.917660027353708e+16,3.950256873193056e+16,43666299163800.32,56206714522.21692,258548539857.32098,4919945463472.211,96163114058745.19,180904344453107.25
364.0434344477359,3.967341545801945e+16,4.003243397764718e+16,44220049637770.445,62371781434.63314,286907490626.794,5477911908239.957,107057539741155.17,201913739068502.47
401.44777789250946,4.008337892313909e+16,4.047817900839038e+16,44676995126382.49,68987132158.43402,317337726031.0247,6081202398934.238,118837493427833.4,224818069439997.8
442.5925556817604,4.04135050035495e+16,4.084704680177543e+16,45044953817224.57,76070903221.97911,349922675576.25226,6732655583153.098,131558687216090.78,249779508030668.9
487.8518112499365,4.067248049973646e+16,4.114799169125064e+16,45333608027187.14,83644155073.94952,384759218221.8791,7435584316177.171,145286050424476.97,276987545373058.6
537.6369923749302,4.087005048170766e+16,4.13910688581057e+16,45553819619218.266,91730896582.5856,421957794955.83997,8193816293970.313,160094509417296.7,306662542375997.9
592.4006916124232,4.101636759432651e+16,4.15867857726624e+16,45716904738082.03,100357624641.03198,461640290959.0905,9011697392672.94,176069047102356.3,339058531187237.8
652.6407607736655,4.112137393793931e+16,4.174548459244769e+16,45833944854578.266,109552351544.61511,503935561622.87396,9894054348939.605,193303976467462.28,374465190924210.1
718.9048368510321,4.119427825365771e+16,4.187681845220149e+16,45915204036335.125,119343159735.80656,548972784543.77673,10846118749604.668,211901465312815.4,413209094500734.5
791.7953205361354,4.124317439328284e+16,4.198936807631209e+16,45969703694469.03,129756384006.7372,596873097882.3054,11873419159629.152,231969443246204.2,455654487447027.6
871.9748525897489,4.1274823224608216e+16,4.209042147250438e+16,46004979495315.8,140814561315.57062,647740169770.4941,12981651384847.256,253619083411196.12,502203978873694.6
960.1723378487239,4.129459432374252e+16,4.218591369464014e+16,46027016370781.73,152534299276.32666,701650393610.4901,14176537519120.623,276962064304128.22,553299568010593.56
1057.1895716335964,4.130654154780441e+16,4.228050129683751e+16,46040332751767.02,164924195986.9331,758643319497.1115,15463682444852.25,302107778966372.25,609424387354626.5
1163.9085287969563,4.13135721989423e+16,4.2377731509588344e+16,46048169118490.44,177982905062.4397,818712753537.9314,16848432499233.963,329160582457625.6,671105430912202.4
1281.299381676652,4.131766494959685e+16,4.248026137946772e+16,46052730900094.516,191697395494.7427,881798753325.7463,18335736311726.344,358217077521789.6,738917388988534.4
1410.4293198443174,4.132009623132769e+16,4.259008642962161e+16,46055440807735.875,206041421963.47842,947780591442.1144,19930003733213.28,389363359336509.2,813487572402937.6
1552.4722518287492,4.1321645341060184e+16,4.270874910608414e+16,46057167446095.83,220974207777.7462,1016470697105.3094,21634956374519.82,422672105047513.3,895502091251003.8
1708.7194770116243,4.132276245714412e+16,4.283750911093324e+16,46058412584153.13,236439359251.6186,1087609661983.8748,23453463038596.094,458199307788767.4,985711421356307.5
1880.5914247127869,4.132369219869424e+16,4.297747267360797e+16,46059448874476.13,252364043175.50787,1160862457094.281,25387354757995.625,495980736745533.5,1084939708035380.5
2069.6505671840655,4.132456005546098e+16,4.312968146347878e+16,46060416187993.34,268658531650.53104,1235816338623.9268,27437217827267.434,536027833680714.2,1194091465451610.5
2277.615623902472,4.1325426095648824e+16,4.3295170772156e+16,46061381476751.02,285216216425.0051,1311980913955.5066,29602165766204.285,578323271867797.5,1314160660266045.5
2506.3771862927197,4.132631667564727e+16,4.3475005632558264e+16,46062374117591.97,301914246401.0166,1388791074131.7283,31879595764289.164,622816196058499.1,1446240085650031.8
2758.0149049219917,4.1327241651524184e+16,4.3670303064429304e+16,46063405096093.266,318614936263.7481,1465613473451.3667,34264938186692.133,669417327582277.4,1591531513630318.0
3034.816395414191,4.1328203025366376e+16,4.388224675183473e+16,46064476643781.93,335168079442.21124,1541757168949.339,36751411117262.38,717994168372977.5,1751356745085946.8
3339.2980349556105,4.132919895544489e+16,4.411209852679894e+16,46065586707866.125,351414258103.48596,1616488846185.9695,39329795095430.47,768366599865990.2,1927169686580452.8
3674.227838451172,4.133022557566904e+16,4.436120917220398e+16,46066730979199.414,367189179215.4836,1689052764851.8813,41988246338239.73,820303222313932.8,2120569154959658.8
4042.6506222962894,4.133127715798861e+16,4.463103224377469e+16,46067903073294.68,382328970555.8129,1758695120355.4104,44712169234185.414,873518909928929.1,2333315079458817.5
4447.915684525919,4.133234728316926e+16,4.492313786232935e+16,46069095835270.83,396676287614.0262,1824692134944.807,47484172603130.58,927673888364197.8,2567342053934919.0
4893.707252978511,4.133342816799562e+16,4.523923252498958e+16,46070300589952.38,410086916884.0869,1886380432755.4302,50284132601270.79,982375008536252.8,2824778447916820.0
5384.077978276362,4.133451106992945e+16,4.558118248956411e+16,46071507592902.59,422436493256.84705,1943187939452.4758,53089388341545.125,1037179557506935.2,3107965341760679.5
5923.485776103998,4.133558640928991e+16,4.595104232835266e+16,46072706166605.56,433626809419.0385,1994662905191.399,55875090622157.7,1091602071536895.6,3419477761022407.5
6516.834353714399,4.133664396514448e+16,4.635108914025606e+16,46073884918805.12,443591145468.2169,2040498420632.8813,58614719442344.03,1145124446591329.8,3762148034592997.5
7169.5177890858395,4.1337673140698024e+16,4.67838627472977e+16,46075032038309.12,452298038866.7088,2080549758604.4194,61280776074352.914,1197209458985364.8,4139091491704269.5
7887.469567994424,4.133866329337606e+16,4.725221194659017e+16,46076135662899.74,459752987516.84894,2114842208227.586,63845641955573.555,1247317545018187.8,4553734735381693.0
8677.216524793868,4.133960411960527e+16,4.7759346558328056e+16,46077184308209.74,465997737438.2004,2143567798333.0408,66282579594256.03,1294926354954564.2,5009846754329987.0
9545.938177273256,4.134048607715698e+16,4.830889462851751e+16,46078167338467.05,471107044670.8327,2167070402431.8667,68566831082699.58,1339552213815526.2,5511573161676671.0
10501.531995000581,4.13413008202609e+16,4.890496375217922e+16,46079075451472.664,475183093561.7475,2185820063149.2593,70676749582107.28,1380772226235597.2,6063473877492380.0
11552.68519450064,4.1342041615774584e+16,4.955220513681608e+16,46079901142463.02,478348057562.98596,2200378772281.485,72594881062433.6,1418245409420354.2,6670564602586375.0
12708.953713950705,4.134270370389478e+16,5.025587879946972e+16,46080639106159.484,480735549198.3917,2211361141057.533,74308901120334.56,1451730994820882.0,7338362463837178.0
13980.849085345777,4.134328456566097e+16,5.102191826134254e+16,46081286534927.625,482481867470.3149,2219394138608.752,75812308571479.14,1481101978061631.5,8072936246507524.0
15379.933993880357,4.134378406306067e+16,5.1856993339434776e+16,46081843274938.98,483717972216.5872,2225080174352.186,77104786945447.05,1506352180926928.8,8880961667080287.0
16918.927393268394,4.134420442662494e+16,5.276857017348111e+16,46082311812344.1,484562982051.11273,2228967188769.7383,78192168811387.16,1527595554172843.5,9769782181888682.0
18611.820132595236,4.134455007978464e+16,5.3764968458323816e+16,46082697077500.81,485119727226.08246,2231528196721.573,79085975479098.73,1545057184811492.5,1.0747475873247032e+16
20474.00214585476,4.1344827307604664e+16,5.485541690336632e+16,46083006075745.2,485472545818.8263,2233151149948.7285,79802552471145.66,1559056406335659.2,1.1822929007183308e+16
22522.40236044024,4.134504379726743e+16,5.6050109074075624e+16,46083247375214.18,485687165599.6088,2234138393619.729,80361872573198.22,1569983414732411.5,1.300591691656807e+16
24775.642596484264,4.134520809541198e+16,5.736026279996397e+16,46083430501994.97,485812238217.8605,2234713723479.8364,80786124290784.8,1578271692203774.5,1.430719293159365e+16
27254.206856132692,4.134532902351261e+16,5.8798187420819496e+16,46083565288506.695,485881937879.8083,2235034339628.0483,81098234654687.4,1584369148524734.5,1.5738586532561328e+16
29980.627541745966,4.1345415226136456e+16,6.037736083944086e+16,46083661369987.28,485919020495.02997,2235204918444.9414,81320484200974.53,1588711062268796.2,1.731310928152571e+16
32979.69029592056,4.134547455703903e+16,6.211252595331743e+16,46083727500236.125,485937830805.17474,2235291445253.1714,81473353811767.5,1591697553798306.2,1.9045075531891964e+16
36278.65932551262,4.134551393295719e+16,6.4019801967402264e+16,46083771388651.08,485946920519.228,2235333257631.881,81574704189040.36,1593677554340208.5,2.095023072434905e+16
39907.525258063884,4.134553907504335e+16,6.611681846541295e+16,46083799412031.0,485951104402.87683,2235352503348.708,81639330486296.14,1594940105592729.2,2.3045894851270656e+16
43899.277783870275,4.13455544896272e+16,6.842287099131898e+16,46083816593132.4,485952940490.19385,2235353336712.6445,81678877359878.22,1595712700235710.2,2.5351119801225852e+16
48290.20556225731,4.134556354785079e+16,7.095909857731956e+16,46083826689432.3,485953046955.2199,2235353826430.4946,81702049215917.0,1596165389442496.0,2.788686245724747e+16
53120.22611848305,4.13455686440346e+16,7.374868273459667e+16,46083832369640.9,485953106852.7625,2235354101947.2305,81715020232275.86,1596418793223367.8,3.0676175137528068e+16
58433.24873033136,4.1345571389547096e+16,7.681706758548622e+16,46083835429790.445,485953139121.9013,2235354250378.819,81721941202814.52,1596554002293056.8,3.3744415109624e+16
64277.57360336451,4.134557281105177e+16,8.01922011031979e+16,46083837014200.08,485953155829.42926,2235354327230.114,81725453221982.66,1596622613553697.5,3.711947508087311e+16
70706.33096370097,4.134557352686501e+16,8.390479821933086e+16,46083837812045.875,485953164242.67584,2235354365929.3696,81727144320753.67,1596655651048004.0,4.083203675175482e+16
77777.96406007107,4.13455738981716e+16,8.798862664020101e+16,46083838225904.26,485953168606.79517,2235354386003.443,81727145053957.92,1596670713484698.5,4.491584973771017e+16
85556.76046607818,4.134557416262554e+16,9.248081558249354e+16,46083838520664.625,485953171715.0309,2235354400300.706,81727145576161.78,1596670723594930.5,4.940803840460409e+16
94113.436512686,4.1345574240075896e+16,9.7422216297281e+16,46083838606991.0,485953172625.3373,2235354404487.938,81727145729099.08,1596670726555808.0,5.434943903873609e+16
103525.78016395462,4.1345574319256216e+16,1.0285774897932934e+17,46083838695245.32,485953173555.976,2235354408768.6885,81727145885452.39,1596670729582824.0,5.9784971638327304e+16
113879.3581803501,4.134557440621667e+16,1.0883682513623269e+17,46083838792171.42,485953174578.0573,2235354413470.058,81727146057168.94,1596670732907266.2,6.576404770467126e+16
125268.29399838512,4.134557450187004e+16,1.1541379705918328e+17,46083838898786.836,485953175702.3114,2235354418641.404,81727146246050.81,1596670736564036.0,7.234101952801008e+16
137796.12339822366,4.134557460708864e+16,1.2264845183639608e+17,46083839016063.44,485953176938.9888,2235354424329.8706,81727146453820.67,1596670740586472.0,7.957567419564978e+16
151576.73573804603,4.1345574722828824e+16,1.3060655474234811e+17,46083839145067.53,485953178299.3299,2235354430587.169,81727146682366.86,1596670745011145.2,8.753377698107162e+16
166735.40931185064,4.13455748501427e+16,1.3936044694667686e+17,46083839286971.65,485953179795.7021,2235354437470.186,81727146933767.16,1596670749878273.2,9.628766905281774e+16
183409.95024303574,4.134557499018759e+16,1.489897029709211e+17,46083839443065.734,485953181441.7078,2235354445041.4785,81727147210306.58,1596670755232097.2,1.0591692493122162e+17
201751.94526733932,4.1345575144236424e+16,1.5958185386305328e+17,46083839614768.7,485953183252.30743,2235354453369.8774,81727147514499.2,1596670761121291.5,1.1650907566292973e+17
221928.13979407327,4.1345575313689816e+16,1.7123318265572752e+17,46083839803641.39,485953185243.9625,2235354462531.0884,81727147849109.94,1596670767599381.0,1.2816040427913789e+17
244121.9537734806,4.134557550008775e+16,1.8404959932953466e+17,46083840011400.6,485953187434.7735,2235354472608.3843,81727148217180.6,1596670774725250.2,1.4097682075883309e+17
268535.1491508287,4.134557570512461e+16,1.981476032231905e+17,46083840239934.875,485953189844.6569,2235354483693.368,81727148622056.66,1596670782563687.8,1.550748244389666e+17
295389.6640659116,4.134557593066433e+16,2.1365534162497632e+17,46083840491321.54,485953192495.51794,2235354495886.799,81727149067418.64,1596670791185925.2,1.705825626058785e+17
324929.6304725028,4.134557617875687e+16,2.3071377415101808e+17,46083840767845.59,485953195411.4515,2235354509299.51,81727149557314.19,1596670800670341.8,1.8764099487356074e+17
357423.5935197531,4.134557645165719e+16,2.4947795347389187e+17,46083841072020.39,485953198618.96185,2235354524053.414,81727150096196.7,1596670811103145.8,2.064051739122406e+17
393166.95287172846,4.134557675184596e+16,2.7011843401822877e+17,46083841406610.87,485953202147.2025,2235354540282.6216,81727150688964.25,1596670822579166.8,2.2704565414396595e+17
432484.6481589014,4.134557708205147e+16,2.9282282139777734e+17,46083841774658.13,485953206028.24457,2235354558134.6367,81727151341004.33,1596670835202713.2,2.497500411796429e+17
475734.11297479155,4.1345577445275064e+16,3.1779747664118944e+17,46083842179507.18,485953210297.36017,2235354577771.72,81727152058243.69,1596670849088516.8,2.7472469604480048e+17
523308.52427227073,4.134557784481807e+16,3.4526939065284634e+17,46083842624838.0,485953214993.3533,2235354599372.3457,81727152847200.92,1596670864362789.0,3.0219660964037914e+17
