t(s),Total solute volume 1,Total retention volume 1,Total 1 volume 1,Total 2 volume 1,Total 3 volume 1,Total 4 volume 1,Total 5 volume 1,Total 6 volume 1
1.0,2334382284795834.5,2336211223768372.5,1828938972540.161,0.0,0.0,0.0,0.0,0.0
2.1,3365583836336334.5,3760655156476740.0,2636863463808.913,115318848563.47316,483477474905.87714,7749383189593.259,138949309398350.52,245136967765182.34
3.3100000000000005,4051104027310933.5,5046158064134480.0,3173953965220.935,291413288066.0181,1221760003769.056,19585540546307.63,351173661268554.75,619607707751632.9
4.641000000000001,4558796482866409.0,6321651303508608.0,3571720221197.7573,516724831712.411,2166389649601.8552,34733736388638.883,622787678431335.2,1099078571119715.5
6.105100000000002,4954524670080646.0,7639254828894022.0,3881764855344.186,787128502068.3531,3300073710974.4473,52918869381550.57,948861998627935.8,1674980323735502.2
7.7156100000000025,5272470721208339.0,9029511700692370.0,4130868840227.809,1101476134740.7273,4618000044844.959,74066195268219.77,1328058153107938.2,2345066286088067.0
9.487171000000004,5533156171319910.0,1.051491147451263e+16,4335110361567.49,1460262797110.5383,6122246090761.442,98211855591401.28,1761025096802577.0,3110600731549305.5
11.435888100000005,5750049522000460.0,1.2114665935629648e+16,4505041703616.955,1865081585900.4795,7819493186600.431,125466378806823.5,2249745114844145.0,3975215303502123.5
13.579476910000007,5932535362826218.0,1.3846813942837004e+16,4648015492575.256,2318364186826.772,9719938956534.236,155997398119215.75,2797224110849043.5,4944370752406609.0
15.937424601000009,6087438592612153.0,1.572931547049994e+16,4769378891454.822,2823249155907.3496,11836745190033.102,190020976366687.7,3407336136861322.0,6025090391422340.0
18.53116706110001,6219884265652104.0,1.7780706866737568e+16,4873147271288.447,3383516047847.973,14185761806719.176,227797388420251.12,4084747801081360.0,7225834986457991.0
21.384283767210015,6333817943557560.0,2.0020548194833708e+16,4962411895707.714,4003557378450.648,16785409467018.678,269629487049898.7,4834888968392190.0,8556460417092946.0
24.522712143931017,6432338147136175.0,2.246976748678696e+16,5039600389906.718,4688374356143.385,19656661867038.336,315862716438229.3,5663952982202376.0,1.0028229004397032e+16
27.97498335832412,6517918104267457.0,2.5150954237773284e+16,5106650475378.619,5443588754486.057,22823095743210.727,366886271541973.06,6578917413650204.0,1.1653859113340678e+16
31.772481694156536,6592558917618061.0,2.8088630508798356e+16,5165129973558.141,6275466532230.6455,26310990175056.35,423135120799554.8,7587580273716735.0,1.344760460998315e+16
35.949729863572195,6657898463691818.0,3.130951626471674e+16,5216322125908.045,7190950540416.097,30149464041054.92,485092728508877.3,8698608752724016.0,1.5425359583084632e+16
40.544702849929415,6715290720303900.0,3.4842799500216856e+16,5261287745305.98,8197700626849.383,34370644554720.043,553294381306413.9,9921598771638536.0,1.7604785994041202e+16
45.59917313492236,6765864760170464.0,3.872041843672782e+16,5300911436266.051,9304140004861.96,39009862143268.96,628331063994555.5,1.1267144360384638e+16,2.0005463338593704e+16
51.1590904484146,6810569412472110.0,4.29773612725824e+16,5335936586323.169,10519507069042.355,44105868257684.4,710853855235558.4,1.2746916330477474e+16,2.264906036248427e+16
57.27499949325607,6850207604645982.0,4.765198797656973e+16,5366992272096.364,11853912006426.146,49701073400746.61,801578829545788.0,1.4373749993583932e+16,2.5559529571114692e+16
64.00249944258168,6885463133862762.0,5.278637808829959e+16,5394614234171.405,13318397616087.246,55841802933043.586,901292461963127.4,1.6161741854650646e+16,2.8763325823039776e+16
71.40274938683986,6916921793626755.0,5.842670824191153e+16,5419261429342.682,14925003739469.684,62578568176166.72,1010857537604177.9,1.8126355311672124e+16,3.2289650765663464e+16
79.54302432552385,6945088229973885.0,6.462366305819354e+16,5441329237085.707,16686834631715.896,69966350034248.055,1131219571114515.2,2.02845354425784e+16,3.617072530062372e+16
88.49732675807624,6970399525302586.0,7.143288309349254e+16,5461160102200.007,18618128476737.926,78064891825123.03,1263413741281667.2,2.265483296267994e+16,4.044209268382444e+16
98.34705943388387,6993236245678979.0,7.891545365541498e+16,5479052190137.797,20734328067185.93,86938997256358.45,1408572344045785.2,2.5257537397504216e+16,4.514295529067224e+16
109.18176537727226,7013931501645405.0,8.713843847258651e+16,5495266485954.962,23052151433042.6,96658828491795.3,1567932762810062.8,2.81148194356853e+16,5.0316548526034824e+16
121.09994191499949,7032778438812251.0,9.61754624239789e+16,5510032663030.5625,25589660905452.254,107300198014931.47,1742845948160874.5,3.1250882301903756e+16,5.6010555843518744e+16
134.20993610649944,7050036476859972.0,1.061073477824844e+17,5523553971192.541,28366328740324.645,118944846484231.28,1934785389564304.2,3.469212181540569e+16,6.227756937145883e+16
148.6309297171494,7065936543344729.0,1.1702280870020627e+17,5536011337293.163,31403096993109.055,131680696966506.97,2145356548897368.5,3.846729456791082e+16,6.91756012347562e+16
164.49402268886433,7080685494625578.0,1.290192089535048e+17,5547566828911.71,34722428825522.746,145602073800711.16,2376306709274066.0,4.260769335625972e+16,7.676865132389035e+16
181.94342495775078,7094469875285400.0,1.4220338826908658e+17,5558366599780.877,38348347830871.65,160809871860070.03,2629535171896359.5,4.714732862841991e+16,8.51273380071943e+16
201.13776745352587,7107459136082459.0,1.566925628635806e+17,5568543410983.732,42306461282041.81,177411659124325.78,2907103707844454.5,5.212311423290049e+16,9.432959912293574e+16
222.25154419887846,7119808406231863.0,1.7261530614332515e+17,5578218802977.217,46623962432586.95,195521692233974.97,3211247139943104.0,5.75750551855103e+16,1.0446147153817053e+17
245.47669861876633,7131660896871753.0,1.9011261582357578e+17,5587504978657.043,51329606137511.11,215260821077459.75,3544383891111343.0,6.354643446599394e+16,1.1561795863740485e+17
271.024368480643,7143149997595917.0,2.0933907403202304e+17,5596506445946.557,56453651112645.46,236756254485255.6,3909126288815078.5,7.008399501064309e+16,1.2790399632292547e+17
299.1268053287073,7154401115959921.0,2.304641072553566e+17,5605321459010.692,62027761133894.14,260141154828265.34,4308290359190196.5,7.723811205401184e+16,1.4143552948877346e+17
330.03948586157804,7165533300156501.0,2.5367335326481376e+17,5614043289587.816,68084856414546.98,285554024841947.56,4744904777804412.0,8.50629497706277e+16,1.5634071249167914e+17
364.0434344477359,7176660677060023.0,2.7917014241330093e+17,5622761353667.074,74658905328763.0,313137845480334.1,5222218565560192.0,9.36165947527739e+16,1.7276124890574333e+17
401.44777789250946,7187893731126632.0,3.071771009301127e+17,5631562213479.501,81784645628864.05,343038919279167.75,5743707026616882.0,1.0296115721048286e+17,1.9085388783476525e+17
442.5925556817604,7199340443877174.0,3.379378840495875e+17,5640530470258.881,89497223412745.22,375405369903829.6,6313075319261161.0,1.131628288746318e+17,2.107920962880305e+17
487.8518112499365,7211107308617541.0,3.717190470010839e+17,5649749559253.434,97831737443298.92,410385245722141.2,6934258929472567.0,1.2429188440843158e+17,2.3276792962183827e+17
537.6369923749302,7223300230451206.0,4.088120620693566e+17,5659302454866.757,106822676145660.5,448124173961963.44,7611420180068172.0,1.364226106799537e+17,2.569941248263208e+17
592.4006916124232,7236025317338479.0,4.495354901250574e+17,5669272290435.907,116503234890578.5,488762513038477.3,8348939756026653.0,1.4963314552552202e+17,2.837064445059506e+17
652.6407607736655,7249389563807059.0,4.942373152549479e+17,5679742893904.164,126904502236180.78,532431954895404.0,9151402060224276.0,1.640052046671981e+17,3.1316630276369344e+17
718.9048368510321,7263501424803410.0,5.4329745143662464e+17,5690799237421.383,138054505913111.94,579251537814118.9,1.0023573036219236e+16,1.796236722918337e+17,3.456637078408033e+17
791.7953205361354,7278471272991736.0,5.971304306708193e+17,5702527795628.269,149977112807961.62,629323044396747.4,1.0970368910863528e+16,1.9657602754742643e+17,3.815205602545375e+17
871.9748525897489,7294411728487681.0,6.561882827005098e+17,5715016803995.512,162690782367859.88,682725780754632.9,1.1996814127213112e+16,2.1495157600975488e+17,4.210943492551284e+17
960.1723378487239,7311437845506434.0,7.209636175401225e+17,5728356405058.803,176207180068615.75,739510762823926.1,1.3107986568984598e+16,2.3484045223142845e+17,4.647822945949059e+17
1057.1895716335964,7329667135700921.0,7.919929236828646e+17,5742638666703.952,190529667194186.3,799694375605790.4,1.4308948037988122e+16,2.5633235710568106e+17,5.130259847220287e+17
1163.9085287969563,7349219403097813.0,8.698600972739194e+17,5757957452842.573,205651695431798.56,863251622134297.1,1.5604657857826854e+16,2.7951499236537117e+17,5.6631656637260326e+17
1281.299381676652,7370216360600668.0,9.552002210161938e+17,5774408122950.756,221555149820767.34,930109141687593.1,1.699986747019561e+16,3.044721546299158e+17,6.252005438558509e+17
1410.4293198443174,7392780993203246.0,1.0487036164641888e+18,5792087033160.128,238208701296645.88,1000138250797648.2,1.8498994002277796e+16,3.3128145369634266e+17,6.902862487332364e+17
1552.4722518287492,7417036628624122.0,1.1511202000807107e+18,5811090808119.978,255566249988303.16,1073148344154959.2,2.010597106240949e+16,3.6001162509915e+17,7.622510416055754e+17
1708.7194770116243,7443105672472616.0,1.263264182468473e+18,5831515350026.667,273565561610874.78,1148881081708448.0,2.182407552359916e+16,3.907194163639884e+17,8.418493067497417e+17
1880.5914247127869,7471107962891727.0,1.3860191620848893e+18,5853454549521.46,292127220182462.7,1227005876679732.5,2.3655729847179308e+16,4.2344604103842784e+17,9.299212966849797e+17
2069.6505671840655,7501158699729579.0,1.5203436800723784e+18,5876998663240.47,311154038557285.3,1307117277257552.5,2.560228065537033e+16,4.58213215800393e+17,1.0274028766024055e+18
2277.615623902472,7533365906752437.0,1.6672773221335974e+18,5902232325512.556,330531080772584.7,1388734889372290.0,2.7663755857562964e+16,4.950188250462731e+17,1.1353362071205347e+18
2506.3771862927197,7567827393593343.0,1.8279474771016177e+18,5929232168110.762,350126453026576.75,1471306502794394.2,2.9838604740093984e+16,5.3383229553707974e+17,1.2548813872428628e+18
2758.0149049219917,7604627198671715.0,2.0035768902422618e+18,5958064033355.592,369793008736346.75,1554215038953955.5,3.212342809289898e+16,5.7458981174406976e+17,1.3873290570948936e+18
3034.816395414191,7643831517073956.0,2.1954921822730301e+18,5988779783696.105,389371082929199.75,1636789816727984.8,3.451270867919472e+16,6.171895605621697e+17,1.5341139318351514e+18
3339.2980349556105,7685484150290170.0,2.405133541948281e+18,6021413736675.514,408692318169595.25,1718322414719972.8,3.699855610112233e+16,6.614872609179511e+17,1.6968292046322964e+18
3674.227838451172,7729601559515102.0,2.634065839453497e+18,6055978789297.657,427584565962122.75,1798087084764106.5,3.95704842210659e+16,7.072923065533171e+17,1.8772417194900836e+18
4042.6506222962894,7776167662108937.0,2.8839914474166554e+18,6092462341164.802,445877744756175.6,1875365243380283.0,4.2215243474258376e+16,7.543649235099105e+17,2.0773077773198922e+18
4447.915684525919,7825128581745067.0,3.156765092568287e+18,6130822181330.0625,463410413418733.06,1949473055984242.0,4.4916734187882216e+16,8.02414809045365e+17,2.2991894064617152e+18
4893.707252978511,7876387644712260.0,3.4544110892032753e+18,6170982568006.492,480036688123082.25,2019790576833743.8,4.765602973743415e+16,8.511017637785888e+17,2.5452709097950116e+18
5384.077978276362,7929801002806898.0,3.7791433196977976e+18,6212830799196.18,495633008018898.4,2085790386185956.0,5.041153914957995e+16,9.00038838119907e+17,2.8181755052004946e+18
5923.485776103998,7985174348354104.0,4.1333883207192837e+18,6256214638978.878,510104163265706.75,2147063268619358.5,5.315933656595383e+16,9.487984691009079e+17,3.120781917057542e+18
6516.834353714399,8042261255658280.0,4.519811799741321e+18,6300941018073.631,523387963388033.9,2203338309691754.8,5.587367872640039e+16,9.969219655453496e+17,3.4562408669998234e+18
7169.5177890858395,8100763717537969.0,4.941348839600096e+18,6346776454201.797,535457968021535.6,2254494952638353.5,5.8527720374318744e+16,1.0439324921233952e+18,3.8279915636877215e+18
7887.469567994424,8160335424134417.0,5.401237946632084e+18,6393449620963.498,546323841253278.5,2300565119945976.0,6.109442073976802e+16,1.0893513986269766e+18,4.239778509430388e+18
8677.216524793868,8220588232147605.0,5.903058962917346e+18,6440656416345.617,556029124741500.25,2341724470035653.0,6.3547612347703e+16,1.1327173472507771e+18,4.695669220835537e+18
9545.938177273256,8281102079026118.0,6.450774704728323e+18,6488067730278.05,564646532227375.8,2378273142035096.0,6.586317786167491e+16,1.1736072368803955e+18,5.20007378016523e+18
10501.531995000581,8341438303006348.0,7.048776025004893e+18,6535339880600.35,572271204631459.0,2410607759982526.5,6.802025451017288e+16,1.2116574645534692e+18,5.757767453333741e+18
11552.68519450064,8401155949872912.0,7.70192985299513e+18,6582127389060.768,579012668396995.8,2439187762266666.0,7.000236331132616e+16,1.2465836807972257e+18,6.373917870378654e+18
12708.953713950705,8459830219237051.0,8.415629670004053e+18,6628097433582.693,584986442322197.1,2464500006331323.5,7.179834725639826e+16,1.2781969841436076e+18,7.054118393838724e+18
13980.849085345777,8517071790886111.0,9.195847867649351e+18,6672944990047.785,590306284726430.6,2487025835430073.0,7.340300424477597e+16,1.306414555010483e+18,7.804429231538052e+18
15379.933993880357,8572545457782224.0,1.0049189528106676e+19,6716407430854.18,595077939963806.5,2507214275836152.0,7.48173207636251e+16,1.3312631152204498e+18,8.631427538041606e+18
16918.927393268394,8625986361557231.0,1.0982947372810322e+19,6758277245081.845,599394951693674.0,2525463836125464.0,7.604825176665208e+16,1.3528743232079654e+18,9.542267194409011e+18
18611.820132595236,8677212243358459.0,1.2005157932410397e+19,6798411636770.254,603336724157050.2,2542113766997686.0,7.710804716705392e+16,1.3714722031945715e+18,1.0544748220902599e+19
20474.00214585476,8726130507760448.0,1.3124659356271018e+19,6836738059344.288,606968623651844.9,2557443993187901.0,7.80131873687165e+16,1.3873538039284756e+18,1.16473949851112e+19
22522.40236044024,8772739509836175.0,1.4351151642447002e+19,6873255224008.563,610343611956821.2,2571681636811931.0,7.878304742985674e+16,1.4008652758046034e+18,1.2859541681198737e+19
24775.642596484264,8817124214743454.0,1.5695260356528927e+19,6908029699127.178,613504753905234.8,2585011384898086.0,7.943844918824778e+16,1.4123762232021972e+18,1.4191423135755244e+19
27254.206856132692,8859447104362508.0,1.7168605054110317e+19,6941188785769.281,616487957007712.9,2597586984314846.5,8.00002732229334e+16,1.4222553659176143e+18,1.5654268951735298e+19
29980.627541745966,8899935771190611.0,1.8783873585358303e+19,6972910797790.594,619324447892858.2,2609541740593752.5,8.048828418513771e+16,1.4308501746405796e+18,1.726039935166215e+19
32979.69029592056,8938868936493871.0,2.0554903236793823e+19,7003414107353.828,622042703110455.0,2620996782963917.5,8.09202777687138e+16,1.4384723118774351e+18,1.9023321735311008e+19
36278.65932551262,8976562615148704.0,2.249676928995385e+19,7032946305376.747,624669760510595.5,2632066740380473.5,8.131159624888363e+16,1.4453896116136717e+18,2.0957827750028923e+19
39907.525258063884,9013357857762328.0,2.4625881113844056e+19,7061774597744.44,627231990847175.9,2642863132091279.5,8.167499670108589e+16,1.4518242291624374e+18,2.3080091373225275e+19
43899.277783870275,9049611027535222.0,2.696008543286108e+19,7090178187437.73,629755486980216.9,2653496118821640.0,8.202080569765736e+16,1.457955730164673e+18,2.540776894418725e+19
48290.20556225731,9085687040050896.0,2.9518775986626675e+19,7118442978051.623,632266237968740.1,2664075315252912.0,8.235726575857197e+16,1.463927419664194e+18,2.7960102154167583e+19
53120.22611848305,9121955524994998.0,3.2323008455363277e+19,7146858566583.375,634790221961610.9,2674710231928674.0,8.269097445344128e+16,1.469854169268322e+18,3.0758024708804043e+19
58433.24873033136,9158789537440456.0,3.5395619259947807e+19,7175717233750.89,637353502410878.8,2685510710039157.0,8.302733250417264e+16,1.4758302976949885e+18,3.3824272800281563e+19
64277.57360336451,9196566279491280.0,3.876134662478955e+19,7205314509384.731,639982367066114.1,2696587522695035.0,8.337094400335354e+16,1.4819365429932073e+18,3.718349879630919e+19
70706.33096370097,9235669272111370.0,4.244695206327768e+19,7235950874009.001,642703518314647.8,2708053184531691.0,8.372594064567458e+16,1.488245670328352e+18,4.086238679037774e+19
77777.96406007107,9276491495761150.0,4.648134015936087e+19,7267934219462.761,645544307739773.4,2720022943417878.5,8.409622554729586e+16,1.4948266664161016e+18,4.488976794071641e+19
85556.76046607818,9319439144406816.0,5.089567413745333e+19,7301582790086.147,648533003233373.5,2732615907276570.5,8.448564733866922e+16,1.5017477250839101e+18,4.929673287539306e+19
94113.436512686,9364935767541944.0,5.572348421698864e+19,7337228427905.479,651699079945072.8,2745956270727652.5,8.48981217846103e+16,1.509078332987173e+18,5.411673783387023e+19
103525.78016395462,9413426683130518.0,6.100076513464094e+19,7375220030080.18,655073527224261.1,2760174608303487.5,8.533771844353525e+16,1.5168907618024724e+18,5.938570060435607e+19
113879.3581803501,9465383621426282.0,6.6766058494982234e+19,7415927187236.08,658689172431780.1,2775409239039310.0,8.580872671986782e+16,1.5252612143810609e+18,6.514208165592115e+19
125268.29399838512,9521309607397088.0,7.3060514794119496e+19,7459744008740.649,662581020704112.8,2791807658076057.5,8.631571150608421e+16,1.5342707988032883e+18,7.142694512577974e+19
137796.12339822366,9581744115140206.0,7.992792906981307e+19,7507093161077.637,666786613645256.2,2809528048015416.0,8.68635649109666e+16,1.544006440261432e+18,7.828399349877085e+19
151576.73573804603,9647268539010172.0,8.741474318981987e+19,7558430154359.054,671346410058378.0,2828740883139927.0,8.74575578059691e+16,1.554561794963447e+18,8.575956892278818e+19
166735.40931185064,9718512029133122.0,9.557000682993915e+19,7614247914325.984,676304192034805.4,2849630640476384.0,8.810339379474195e+16,1.566038201568809e+18,9.390261317346592e+19
183409.95024303574,9796157737158068.0,1.0444528825921536e+20,7675081675761.695,681707499591131.6,2872397631146792.5,8.88072656768259e+16,1.5785456919964088e+18,1.0276457736359225e+20
201751.94526733932,9880949513346686.0,1.140945252029211e+20,7741514229518.151,687608096714544.2,2897259964057892.0,8.957591646151947e+16,1.592204069085243e+18,1.1239927165828588e+20
221928.13979407327,9973699087320012.0,1.2457380538170124e+20,7814181548478.1455,694062471065528.5,2924455651405510.0,9.041670445591477e+16,1.6071440635114662e+18,1.2286264458234241e+20
244121.9537734806,1.0075293753319244e+16,1.3594106593331143e+20,7893778808792.462,701132368789199.5,2954244862108688.0,9.133767292490136e+16,1.6235085704498294e+18,1.3421248112517367e+20
268535.1491508287,1.018670456282242e+16,1.4825570095709746e+20,7981066808620.015,708885364633151.1,2986912324006629.0,9.234762434849634e+16,1.641453967651667e+18,1.4650800888177908e+20
295389.6640659116,1.0308995002370346e+16,1.6157806705079668e+20,8076878767018.473,717395465830544.4,3022769868323881.0,9.345619907522238e+16,1.661151511290289e+18,1.5980940210321598e+20
324929.6304725028,1.0443330099230396e+16,1.7596887813900504e+20,8182127458036.582,726743745756056.5,3062159099580897.5,9.46739578508116e+16,1.6827888002295537e+18,1.7417717496585306e+20
357423.5935197531,1.0590985848964168e+16,1.914884833522204e+20,8297812597011.104,737018999982729.0,3105454159887469.0,9.6012467261108e+16,1.706571291521262e+18,1.8967145783661642e+20
393166.95287172846,1.0753358793133998e+16,2.081960254476728e+20,8425028344493.275,748318412786710.6,3153064537253091.0,9.748438653104766e+16,1.732723839296792e+18,2.063511540550738e+20
